1660244277.00
64.000000
-0.00
-0.00
-0.00
-0.00
-0.00
-0.00
-0.00
-0.00
-0.00
-0.00
0.00
0.01
0.01
-0.00
-0.03
-0.05
-0.05
0.00
0.13
0.36
0.66
1.01
1.37
1.72
2.06
2.40
2.79
3.24
3.80
4.42
5.06
5.66
6.20
6.68
7.15
7.68
8.31
9.14
10.09
11.04
11.88
12.56
13.14
13.76
14.65
15.96
17.91
20.32
22.90
25.38
27.58
29.57
31.68
34.32
37.81
42.54
48.15
54.10
59.83
64.97
69.58
74.14
79.34
85.71
93.76
103.00
112.62
121.73
129.77
136.75
143.30
150.75
157.77
166.64
177.95
191.79
206.97
220.57
228.25
225.36
208.53
176.87
132.76
80.05
23.07
-34.94
-92.44
-149.16
-205.23
-260.37
-313.74
-363.87
-409.83
-450.91
-486.50
-515.74
-537.23
-549.22
-549.96
-538.37
-514.21
-478.67
-433.88
-382.45
-327.02
-269.84
-212.63
-156.66
-102.95
-52.37
-5.90
35.58
71.43
101.35
125.50
144.38
158.69
169.15
176.37
180.75
182.57
182.07
179.51
175.23
169.65
163.18
156.15
148.81
141.30
133.69
126.02
118.33
110.69
103.16
95.80
88.68
81.83
75.25
68.95
62.95
57.25
51.86
46.78
42.03
37.59
33.45
29.61
26.07
22.81
19.83
17.11
14.67
12.48
10.54
8.83
7.35
6.07
4.97
4.05
3.27
2.62
2.09
1.65
1.30
1.01
0.79
0.61
0.48
0.37
0.29
0.24
0.20
0.18
0.17
0.18
0.19
0.21
0.24
0.27
0.31
0.35
0.40
0.44
0.49
0.54
0.58
0.63
0.69
0.75
0.81
0.88
0.96
1.04
1.13
1.24
1.36
1.49
1.63
1.80
1.98
2.18
2.41
2.66
2.93
3.23
3.56
3.92
4.33
4.78
5.26
5.78
6.31
6.84
7.36
7.89
8.46
9.10
9.83
10.65
11.53
12.45
13.37
14.31
15.29
16.33
17.46
18.71
20.01
21.29
22.39
23.17
23.48
23.22
22.36
20.88
18.80
16.05
12.61
8.37
3.40
-2.14
-7.90
-13.44
-18.32
-22.23
-25.11
-27.16
-28.74
-30.20
-31.75
-33.31
-34.62
-35.35
-35.33
-34.72
-33.96
-33.63
-34.23
-35.88
-38.26
-40.74
-42.69
-43.67
-43.71
-43.21
-42.76
-42.94
-44.26
-47.09
-51.54
-57.05
-62.12
-64.36
-61.22
-51.04
-34.08
-12.70
9.38
28.53
42.51
51.04
55.31
56.97
57.12
56.07
53.64
49.80
44.99
40.04
35.67
32.10
28.94
25.51
21.17
15.76
9.61
3.40
-2.13
-6.51
-9.65
-11.81
-13.49
-15.39
-17.95
-21.33
-25.36
-29.53
-33.20
-35.75
-36.80
-36.38
-34.94
-33.14
-31.74
-31.29
-31.98
-33.46
-34.98
-35.63
-34.53
-31.21
-25.92
-19.80
-14.90
-13.81
-18.88
-31.45
-51.07
-75.45
-100.89
-123.18
-138.66
-144.93
-141.25
-128.13
-106.85
-78.91
-45.82
-9.21
28.93
66.10
99.60
127.11
147.44
160.74
168.27
171.83
173.13
173.38
173.10
171.88
168.41
160.72
146.83
126.04
100.06
73.15
51.09
38.92
38.88
49.65
67.16
86.67
104.60
119.13
129.44
134.56
132.85
122.76
104.07
78.85
51.19
25.88
6.56
-5.43
-10.95
-11.95
-10.25
-6.69
-1.30
6.01
14.70
23.31
29.83
32.35
29.75
22.02
10.19
-4.03
-18.70
-32.13
-43.13
-51.12
-56.03
-58.11
-57.74
-55.29
-51.15
-45.79
-39.77
-33.80
-28.62
-24.86
-22.93
-23.02
-25.13
-29.20
-35.10
-42.56
-51.09
-59.81
-67.63
-73.36
-76.13
-75.54
-71.85
-65.76
-58.25
-50.26
-42.55
-35.64
-29.83
-25.27
-22.05
-20.15
-19.44
-19.61
-20.12
-20.30
-19.47
-17.13
-13.14
-7.76
-1.62
4.48
9.76
13.64
15.81
16.24
15.14
12.92
10.07
7.10
4.42
2.25
0.63
-0.58
-1.62
-2.73
-4.12
-5.91
-8.09
-10.50
-12.85
-14.76
-15.83
-15.75
-14.42
-12.00
-8.91
-5.67
-2.81
-0.71
0.53
1.12
1.47
2.19
3.72
6.24
9.57
13.25
16.68
19.34
20.96
21.49
21.09
20.05
18.71
17.40
16.41
15.95
16.01
16.42
16.84
16.99
16.64
15.75
14.40
12.72
10.81
8.75
6.55
4.21
1.66
-1.16
-4.31
-7.75
-11.36
-14.86
-17.96
-20.45
-22.29
-23.53
-24.29
-24.62
-24.43
-23.55
-21.89
-19.53
-16.74
-13.90
-11.35
-9.35
-8.00
-7.33
-7.33
-7.93
-8.98
-10.21
-11.31
-11.99
-12.16
-11.90
-11.32
-10.46
-9.19
-7.31
-4.67
-1.37
2.22
5.58
8.24
9.94
10.74
10.91
10.81
10.63
10.35
9.78
8.75
7.26
5.60
4.18
3.40
3.35
3.78
4.24
4.36
4.02
3.36
2.60
1.84
1.04
0.04
-1.16
-2.27
-2.84
-2.46
-1.04
1.10
3.36
5.07
5.80
5.54
4.55
3.26
2.03
1.04
0.34
-0.11
-0.33
-0.27
0.12
0.85
1.79
2.71
3.28
3.27
2.60
1.39
-0.01
-1.21
-1.86
-1.79
-1.02
0.21
1.50
2.42
2.60
1.85
0.21
-2.02
-4.46
-6.72
-8.62
-10.19
-11.63
-13.14
-14.78
-16.41
-17.68
-18.23
-17.88
-16.74
-15.16
-13.59
-12.38
-11.56
-10.88
-9.94
-8.44
-6.42
-4.23
-2.39
-1.31
-1.02
-1.21
-1.39
-1.15
-0.37
0.91
2.61
4.73
7.37
10.51
13.88
16.94
19.04
19.74
19.08
17.50
15.70
14.29
13.59
13.55
13.85
14.13
14.11
13.75
13.18
12.64
12.33
12.33
12.51
12.65
12.60
12.28
11.81
11.32
10.75
9.88
8.32
5.85
2.52
-1.16
-4.54
-7.03
-8.49
-9.17
-9.62
-10.35
-11.55
-13.12
-14.74
-16.11
-17.09
-17.77
-18.28
-18.76
-19.24
-19.62
-19.83
-19.86
-19.86
-20.00
-20.41
-21.05
-21.69
-22.09
-22.07
-21.63
-20.97
-20.29
-19.72
-19.27
-18.92
-18.68
-18.67
-18.99
-19.69
-20.60
-21.52
-22.22
-22.63
-22.81
-22.83
-22.75
-22.51
-22.09
-21.47
-20.74
-20.00
-19.34
-18.72
-17.98
-16.89
-15.25
-12.96
-10.15
-7.16
-4.53
-2.80
-2.28
-2.87
-4.10
-5.28
-5.82
-5.45
-4.37
-3.05
-2.04
-1.69
-2.07
-2.98
-4.06
-4.91
-5.24
-4.94
-4.18
-3.33
-2.92
-3.34
-4.74
-6.76
-8.73
-9.84
-9.51
-7.70
-5.09
-2.93
-2.73
-5.73
-12.34
-21.88
-32.50
-41.72
-47.11
-46.92
-40.47
-28.20
-11.53
7.52
26.53
42.94
54.34
58.95
56.14
46.70
32.61
16.44
0.64
-12.98
-23.51
-30.82
-35.26
-37.31
-37.39
-35.76
-32.73
-28.35
-22.54
-15.13
-6.23
3.70
13.76
22.83
29.84
33.78
34.49
32.84
30.22
27.90
26.50
25.92
25.59
24.80
22.31
17.69
11.64
5.45
0.25
-3.29
-4.69
-3.47
0.82
6.93
13.41
18.84
21.36
18.51
7.95
-11.18
-37.17
-66.39
-96.49
-125.07
-149.65
-167.75
-177.29
-176.75
-165.69
-144.87
-108.26
-60.24
-13.07
20.78
36.51
36.72
26.71
11.29
-5.29
-17.95
-23.44
-18.97
-3.68
20.12
46.87
70.27
81.05
73.85
50.41
16.99
-17.43
-46.07
-66.28
-79.27
-88.03
-94.95
-100.59
-104.05
-105.17
-102.08
-92.56
-74.74
-48.07
-13.21
24.34
59.05
85.18
97.77
98.31
92.66
88.50
91.39
102.50
118.62
134.85
146.71
152.31
157.26
169.51
195.07
234.79
285.05
340.83
399.14
459.55
498.75
499.57
457.34
383.10
294.76
206.94
128.13
62.83
12.04
-26.24
-52.40
-67.52
-73.06
-70.50
-60.82
-44.84
-24.80
-6.13
3.95
1.96
-11.95
-34.05
-58.71
-80.24
-94.85
-101.91
-104.65
-107.00
-109.56
-110.95
-109.21
-103.80
-96.14
-88.90
-84.57
-84.91
-89.24
-94.28
-96.53
-93.85
-86.72
-77.72
-70.02
-65.78
-66.20
-70.22
-75.36
-79.41
-81.64
-83.39
-87.73
-98.44
-113.22
-130.82
-148.96
-165.15
-177.75
-186.60
-193.15
-199.86
-209.46
-224.04
-245.10
-271.70
-300.27
-324.87
-338.45
-334.98
-311.49
-269.27
-213.16
-150.10
-85.29
-20.58
45.00
112.75
180.94
243.10
289.18
309.15
296.59
251.65
180.80
94.54
4.49
-78.86
-147.34
-195.28
-219.68
-220.69
-201.26
-166.53
-122.59
-75.05
-28.20
15.02
52.52
83.06
106.61
124.91
141.52
160.93
186.81
220.28
259.20
298.58
331.69
351.64
352.86
332.48
291.37
234.77
171.75
113.08
67.86
40.22
27.58
22.01
14.05
-2.63
-28.23
-57.12
-81.12
-93.86
-93.73
-83.90
-69.74
-55.56
-42.66
-29.54
-14.04
4.38
23.61
39.73
49.15
50.50
45.33
37.29
30.44
27.66
30.08
37.44
48.85
63.33
79.59
95.53
107.89
112.77
106.84
88.73
59.82
24.11
-13.12
-46.86
-73.86
-93.06
-105.24
-112.08
-115.17
-115.67
-114.41
-112.40
-111.12
-112.38
-117.60
-126.99
-139.02
-150.66
-158.13
-158.19
-149.12
-131.33
-107.21
-80.29
-54.21
-31.66
-13.89
-0.64
9.26
17.29
24.69
32.19
39.98
47.84
55.30
61.81
66.92
70.46
72.56
73.56
73.75
73.12
71.40
68.35
64.21
59.83
56.36
54.64
54.49
54.68
53.43
49.41
42.56
34.11
25.81
18.79
12.74
6.13
-2.69
-14.17
-26.82
-37.40
-42.18
-38.22
-24.19
-0.46
31.31
68.41
107.17
142.83
169.89
183.11
178.90
156.35
117.43
66.52
9.47
-47.07
-96.24
-131.61
-148.29
-144.33
-121.45
-85.35
-44.21
-6.17
22.94
40.60
47.17
44.67
35.75
23.19
9.27
-4.42
-17.11
-28.65
-39.08
-48.07
-54.35
-55.84
-49.75
-34.90
-12.71
13.24
38.91
61.55
80.71
98.13
116.50
139.32
166.59
193.79
213.67
219.38
206.98
176.74
133.23
84.37
42.51
16.14
7.02
11.68
25.15
43.19
62.70
81.58
98.61
118.61
143.55
171.51
199.84
228.94
261.37
298.30
337.53
374.39
410.54
444.04
467.95
474.07
458.05
420.08
363.02
291.75
169.14
-2.02
-182.97
-329.03
-421.32
-465.70
-476.94
-467.73
-447.61
-421.57
-385.95
-341.73
-296.56
-258.70
-232.88
-216.58
-204.68
-192.88
-178.46
-154.66
-120.15
-81.14
-52.75
-43.62
-53.14
-73.31
-93.69
-105.53
-100.98
-78.02
-47.37
-22.56
-11.88
-17.94
-39.03
-71.00
-109.98
-146.00
-164.60
-156.22
-119.88
-61.12
9.84
81.28
141.83
181.85
195.70
181.11
142.77
82.67
10.16
-61.23
-117.86
-150.44
-156.29
-138.54
-98.66
-49.37
-5.31
25.69
43.24
53.03
62.30
75.66
93.51
112.61
124.51
122.17
104.00
72.55
33.98
-5.28
-41.31
-72.76
-101.23
-131.64
-169.21
-211.05
-253.89
-292.52
-321.16
-334.88
-328.74
-299.64
-248.27
-178.10
-93.78
-0.27
99.26
202.48
302.20
384.89
436.52
448.90
422.76
366.40
292.94
218.16
158.53
115.11
84.98
62.50
40.54
13.05
-23.07
-67.99
-113.60
-151.33
-173.31
-172.46
-145.74
-96.15
-32.38
33.84
91.63
134.18
158.76
166.10
159.94
144.34
122.44
96.55
68.68
40.83
14.65
-9.73
-33.29
-56.32
-78.02
-96.37
-108.67
-112.64
-107.59
-94.51
-76.39
-56.91
-39.01
-24.74
-15.24
-10.85
-11.09
-14.48
-18.53
-20.72
-19.61
-15.98
-13.47
-17.68
-33.98
-64.92
-108.12
-155.93
-197.05
-220.00
-216.91
-186.76
-136.28
-78.18
-27.39
3.49
7.11
-17.30
-64.62
-125.51
-188.29
-240.61
-271.73
-275.26
-251.33
-207.01
-153.77
-102.73
-60.12
-25.46
6.52
41.43
81.00
121.50
155.77
177.07
181.92
170.40
144.42
105.74
55.61
-4.30
-70.07
-134.57
-188.52
-223.29
-233.93
-220.70
-188.96
-147.10
-103.95
-67.09
-41.30
-27.76
-24.62
-28.01
-33.25
-35.74
-31.48
-17.11
8.90
47.19
97.52
157.49
221.39
280.83
327.79
357.94
372.17
372.52
361.83
342.96
318.21
289.03
256.89
224.40
194.86
170.22
145.64
114.40
73.86
27.81
-16.23
-51.51
-75.31
-89.69
-100.71
-120.71
-159.85
-219.82
-294.87
-377.92
-464.95
-554.51
-644.71
-695.94
-675.27
-579.43
-436.70
-283.79
-147.38
-41.15
32.25
78.66
108.63
129.23
142.57
152.02
162.23
176.98
198.07
226.02
260.97
296.16
321.89
330.78
324.49
310.96
298.48
291.11
287.56
282.66
270.37
245.23
195.69
126.64
54.80
-3.83
-43.51
-67.70
-82.44
-91.92
-98.44
-103.25
-105.36
-104.87
-103.64
-103.63
-105.88
-110.21
-115.62
-120.83
-124.39
-123.06
-114.57
-98.88
-78.04
-53.73
-27.56
-0.68
25.91
50.38
70.61
83.55
84.09
73.35
56.02
38.15
24.69
17.88
17.28
21.55
29.00
37.69
45.84
50.67
49.24
40.04
24.36
6.30
-8.43
-15.45
-13.58
-4.75
6.69
16.39
21.94
23.48
22.80
21.77
20.81
18.49
12.83
2.65
-10.89
-24.27
-33.08
-34.20
-27.22
-14.36
0.74
15.12
27.11
36.64
44.23
50.76
56.02
60.06
63.41
66.82
70.33
72.23
69.21
57.32
33.97
-0.33
-41.11
-80.66
-110.23
-122.79
-115.40
-89.95
-52.26
-10.03
29.50
60.95
81.32
89.55
85.95
72.12
51.14
27.54
6.71
-6.51
-9.59
-2.89
10.44
25.77
38.99
47.65
51.31
51.17
49.19
46.97
45.99
47.15
50.37
55.01
60.09
64.67
68.33
71.06
72.96
74.58
76.30
77.21
76.03
71.75
63.86
52.31
40.07
28.54
18.61
10.15
0.82
-11.52
-27.53
-46.10
-64.30
-80.43
-93.82
-104.25
-112.93
-124.00
-140.56
-163.05
-189.21
-214.31
-235.62
-250.75
-256.81
-251.78
-237.54
-216.62
-191.43
-164.39
-137.12
-114.35
-99.69
-93.86
-77.06
-39.91
12.07
62.99
88.90
93.83
84.34
66.42
51.38
45.70
49.40
59.16
69.70
75.35
72.73
58.11
31.86
-1.33
-35.84
-69.08
-100.12
-128.70
-154.33
-174.90
-190.05
-198.86
-199.99
-193.37
-181.41
-167.07
-152.70
-139.57
-127.50
-117.24
-108.76
-100.85
-91.94
-80.79
-66.26
-47.62
-24.68
2.28
31.93
63.07
94.95
126.67
156.59
182.40
201.65
212.64
215.33
211.18
202.89
193.35
184.64
177.68
172.72
170.01
170.39
175.07
184.79
198.77
214.34
227.33
233.40
229.50
214.95
191.67
163.58
135.39
111.47
94.88
86.88
86.87
92.51
100.18
105.75
105.47
97.05
80.21
56.71
29.57
2.09
-23.09
-44.56
-61.99
-76.17
-88.16
-98.75
-108.38
-117.04
-124.28
-129.19
-130.74
-128.34
-122.56
-114.79
-106.54
-98.71
-91.06
-82.07
-69.52
-51.40
-26.96
2.00
32.18
59.86
81.80
95.89
101.72
100.81
96.25
91.66
88.35
86.85
87.61
90.74
95.34
100.02
103.72
106.30
108.17
106.27
98.90
87.60
76.08
67.10
61.29
57.42
52.91
44.37
22.80
-16.86
-71.71
-133.09
-192.77
-245.83
-290.86
-328.52
-360.05
-393.49
-432.86
-475.04
-513.55
-545.19
-570.55
-590.91
-605.38
-563.95
-446.26
-278.11
-110.53
20.87
106.99
156.29
183.91
204.41
226.65
244.26
247.86
233.09
203.46
164.71
124.65
92.05
75.24
79.29
98.63
125.68
155.99
187.35
213.68
229.45
231.71
220.98
199.90
168.55
129.05
86.90
48.70
18.23
-4.61
-22.48
-37.36
-49.84
-60.08
-65.95
-63.91
-51.55
-30.05
-2.04
23.61
40.90
48.63
48.76
44.21
37.13
28.62
18.97
9.43
2.51
1.84
9.34
23.44
39.78
52.21
55.95
49.60
35.44
17.66
1.06
-10.99
-16.99
-16.19
-8.93
3.28
17.22
28.46
32.52
27.38
14.44
-2.36
-19.21
-34.53
-49.39
-65.42
-82.15
-95.95
-100.76
-91.15
-64.57
-27.77
8.95
36.03
48.46
47.17
37.83
27.38
20.65
19.01
20.52
22.76
24.56
26.44
29.28
32.59
33.56
28.28
14.34
-6.47
-27.39
-39.96
-38.87
-25.36
-7.22
5.24
4.80
-8.98
-30.34
-50.33
-61.54
-61.20
-51.24
-36.17
-20.49
-7.13
2.58
8.28
10.51
10.44
9.66
9.96
12.95
19.45
29.24
41.24
53.46
63.14
67.12
63.05
51.17
35.23
21.46
15.65
19.92
31.12
42.29
46.33
40.01
25.36
8.21
-5.61
-13.53
-16.94
-19.45
-23.87
-30.55
-37.18
-41.14
-41.47
-39.62
-38.59
-41.15
-48.40
-59.15
-70.35
-78.71
-82.15
-80.52
-75.63
-70.32
-67.06
-67.20
-70.68
-76.35
-82.24
-85.57
-82.99
-71.30
-48.76
-16.32
22.01
60.21
92.30
114.60
126.89
131.73
132.57
131.86
130.33
127.55
123.36
118.49
114.64
113.74
116.92
124.15
134.34
145.80
156.53
164.35
167.07
163.40
153.37
138.34
120.21
100.92
81.63
61.96
43.04
26.20
13.17
5.67
4.71
9.58
18.08
27.27
34.67
38.76
39.94
40.48
43.15
49.67
59.02
68.63
75.57
77.94
74.15
65.64
57.14
53.76
58.21
67.16
74.12
72.23
56.60
22.56
-29.00
-91.24
-154.86
-210.82
-255.99
-288.38
-306.48
-311.40
-313.51
-322.65
-341.99
-367.28
-387.97
-397.89
-392.73
-373.11
-347.26
-335.05
-350.62
-393.21
-449.82
-501.86
-541.95
-568.50
-584.48
-543.95
-434.82
-289.59
-155.48
-76.95
-29.04
8.64
45.83
92.61
146.81
194.53
225.59
240.64
248.55
261.52
281.08
306.16
335.54
367.42
395.49
416.55
432.45
445.79
457.26
458.48
442.36
407.18
355.37
288.99
211.83
130.51
53.26
-11.12
-59.09
-88.43
-98.18
-90.69
-72.30
-51.05
-36.54
-34.55
-42.04
-52.84
-61.84
-67.01
-69.19
-68.24
-65.41
-59.96
-49.93
-33.84
-12.48
12.79
42.34
72.90
104.28
136.31
168.11
197.65
221.59
235.28
233.86
213.73
173.74
117.72
53.30
-9.48
-61.10
-95.48
-112.01
-115.14
-111.94
-109.06
-108.03
-105.60
-95.79
-73.35
-36.40
12.25
65.18
111.80
140.82
145.34
124.69
83.78
31.05
-24.28
-74.61
-113.24
-133.34
-137.82
-135.85
-132.61
-126.14
-112.06
-89.42
-62.61
-39.81
-29.45
-36.21
-57.27
-83.14
-102.81
-108.64
-99.64
-80.19
-57.40
-37.73
-24.74
-17.53
-12.07
-4.64
7.00
21.22
35.21
46.17
52.06
52.14
48.36
45.32
46.63
56.73
74.77
94.33
105.97
102.00
80.74
48.17
14.96
-9.16
-19.60
-18.71
-12.20
-4.88
2.07
10.99
25.53
47.79
76.25
105.70
128.18
136.07
124.92
95.42
53.59
9.11
-28.11
-51.31
-59.12
-55.66
-47.80
-41.66
-40.33
-43.60
-49.71
-57.06
-64.72
-71.51
-75.05
-71.91
-59.05
-36.41
-8.50
15.88
27.02
19.18
-6.26
-40.52
-70.86
-85.81
-79.89
-55.63
-20.99
13.08
39.53
56.74
67.44
74.41
78.49
78.28
71.32
56.65
36.04
13.74
-6.07
-21.60
-34.23
-46.85
-61.01
-75.68
-87.18
-91.29
-85.66
-71.52
-53.37
-36.23
-25.48
-22.34
-24.42
-27.33
-27.04
-21.56
-11.36
1.22
13.02
21.33
24.86
23.47
17.99
9.89
1.01
-6.59
-11.03
-11.11
-6.32
3.09
15.86
30.22
44.15
55.99
64.19
68.85
70.34
69.00
65.04
58.50
49.50
38.93
26.94
14.42
2.40
-8.65
-18.75
-28.18
-36.98
-44.29
-48.89
-49.77
-46.37
-39.22
-29.98
-20.90
-14.12
-10.87
-10.87
-13.00
-15.46
-16.00
-12.69
-4.31
9.46
27.92
49.55
73.00
96.05
115.15
125.67
122.99
104.51
71.47
29.71
-14.14
-53.18
-83.60
-105.57
-121.38
-132.74
-138.48
-133.71
-115.88
-85.58
-47.48
-9.11
22.91
46.46
62.52
73.71
81.40
84.04
78.55
63.20
39.57
12.27
-10.50
-23.77
-25.84
-18.56
-6.10
7.24
18.66
26.77
31.01
30.52
25.14
15.45
2.67
-11.24
-23.94
-33.44
-38.98
-41.23
-41.76
-42.34
-43.74
-45.60
-46.57
-45.02
-40.27
-32.61
-23.74
-15.91
-11.08
-9.87
-11.26
-12.42
-9.62
0.45
18.62
42.43
65.88
81.08
82.02
64.95
31.32
-11.96
-54.72
-86.30
-99.19
-91.00
-64.59
-26.85
14.04
51.16
81.05
103.14
119.24
131.55
141.61
149.73
154.79
155.27
149.65
138.22
121.73
101.82
79.81
56.19
30.33
0.01
-34.24
-70.68
-105.17
-134.66
-152.68
-154.98
-142.41
-121.22
-100.08
-85.06
-83.24
-90.89
-103.80
-117.95
-129.66
-136.56
-132.94
-116.59
-87.72
-49.85
-5.54
41.30
87.02
126.70
157.43
177.94
184.95
178.54
154.21
112.68
56.96
-11.02
-78.70
-130.91
-158.42
-161.77
-147.70
-130.71
-111.29
-86.98
-56.17
-17.72
26.23
69.83
105.12
124.44
120.36
92.42
50.82
3.21
-45.66
-90.54
-126.67
-149.57
-155.18
-141.16
-106.38
-53.80
10.15
79.04
146.25
203.85
242.89
255.29
236.67
190.04
124.63
52.99
-11.78
-60.85
-92.49
-110.73
-121.78
-129.98
-135.39
-135.08
-125.93
-106.32
-77.67
-44.65
-13.22
11.86
28.86
39.21
45.93
51.24
55.47
57.26
54.31
45.28
31.13
15.12
1.31
-7.07
-9.42
-7.64
-4.79
-3.92
-6.31
-11.08
-15.45
-16.30
-11.08
0.77
17.51
36.52
54.37
67.55
73.18
70.44
58.32
39.79
20.72
7.07
5.01
15.35
33.07
51.12
65.58
75.62
81.07
79.56
66.68
39.10
-2.46
-51.38
-98.45
-135.20
-156.68
-163.04
-158.68
-149.50
-139.85
-131.95
-122.20
-110.95
-98.52
-84.90
-69.64
-51.72
-29.90
-3.31
27.81
62.10
96.91
129.71
157.27
175.29
179.05
165.27
134.41
91.42
44.90
3.67
-25.72
-41.55
-47.00
-47.78
-49.02
-52.90
-58.09
-60.98
-58.05
-47.25
-29.19
-6.93
15.29
33.59
45.62
51.07
50.98
46.76
39.72
30.73
20.52
10.12
0.99
-5.34
-7.95
-7.04
-3.94
-0.40
2.09
2.78
1.90
0.35
-0.79
-0.76
0.45
2.38
4.43
6.14
7.34
8.09
8.29
7.81
6.67
5.03
3.33
1.91
0.82
-0.36
-2.20
-5.08
-8.77
-12.48
-15.21
-16.25
-15.49
-13.47
-10.96
-8.58
-6.62
-5.07
-3.84
-2.97
-2.59
-2.80
-3.51
-4.37
-5.11
-5.52
-5.61
-5.63
-5.95
-6.81
-8.03
-9.08
-9.34
-8.65
-7.05
-4.73
-1.70
2.17
6.97
12.54
18.33
23.46
26.65
27.27
25.67
23.12
20.93
19.92
20.28
21.68
23.49
23.96
22.15
18.46
14.38
11.34
10.45
12.71
18.83
29.04
40.54
51.98
63.22
74.68
85.80
94.95
100.60
101.93
98.90
88.46
70.22
48.21
28.38
14.55
6.65
1.81
-4.30
-16.58
-44.22
-92.37
-158.14
-232.73
-305.74
-367.46
-409.31
-425.15
-383.81
-281.96
-151.90
-35.96
43.10
84.10
95.91
89.81
76.20
62.92
49.56
35.25
22.32
13.10
10.47
14.82
25.48
41.98
63.31
83.14
95.94
100.38
98.00
90.40
77.93
61.20
41.52
23.23
9.02
1.63
3.50
14.48
30.79
46.93
55.83
56.56
55.85
60.18
71.81
88.43
105.21
118.80
127.60
131.80
133.25
133.66
132.61
129.16
123.19
114.39
104.63
95.28
86.39
76.92
64.55
45.70
18.04
-18.60
-61.99
-107.91
-151.72
-189.33
-217.69
-235.91
-245.91
-250.26
-251.59
-252.04
-252.47
-252.70
-251.38
-246.28
-235.27
-217.40
-191.41
-156.88
-115.17
-69.05
-22.55
20.34
56.44
87.35
108.61
117.40
116.11
109.74
102.25
94.88
86.83
78.49
70.70
64.26
60.91
61.96
66.98
76.41
87.79
98.36
106.49
111.99
115.03
115.63
112.62
103.67
86.95
63.02
36.69
16.02
8.93
19.48
45.07
77.66
106.46
121.32
115.94
90.61
51.83
9.22
-28.59
-58.54
-80.57
-95.75
-105.63
-111.90
-114.76
-112.88
-104.63
-89.46
-71.75
-54.96
-39.50
-24.75
-11.63
-2.05
1.63
-3.35
-20.00
-55.17
-110.48
-179.12
-248.91
-307.40
-344.27
-353.68
-336.21
-272.26
-171.09
-66.98
10.21
55.16
78.11
91.24
101.48
110.19
116.68
116.43
109.79
102.67
102.01
108.23
117.74
125.56
128.47
127.27
122.23
117.31
119.39
134.12
162.75
203.36
253.14
302.74
344.45
369.68
373.77
357.85
326.79
286.64
243.03
199.73
157.90
117.51
76.12
31.50
-17.16
-69.31
-122.42
-170.88
-206.28
-219.85
-205.18
-162.53
-98.96
-26.27
42.20
95.94
129.77
143.63
140.29
123.83
98.00
66.20
31.66
-3.68
-37.88
-69.17
-96.93
-122.24
-146.77
-171.27
-194.45
-213.62
-228.29
-237.69
-240.66
-236.90
-228.26
-217.82
-208.36
-201.37
-197.78
-202.17
-216.61
-238.92
-264.40
-289.06
-310.21
-325.65
-332.78
-330.10
-322.52
-313.72
-303.86
-291.72
-278.18
-265.94
-257.63
-254.32
-222.54
-152.54
-63.78
14.33
68.32
101.67
123.99
139.65
155.07
170.69
179.30
176.90
166.26
154.27
144.71
137.44
130.12
120.84
108.21
88.94
63.90
38.74
20.97
15.52
23.94
44.90
74.95
107.26
130.09
132.61
109.15
61.39
-2.23
-68.24
-121.96
-152.23
-155.78
-138.24
-109.20
-77.10
-46.37
-17.68
10.27
38.72
67.75
96.40
123.55
149.28
174.63
199.83
222.72
239.11
244.25
234.91
210.83
175.15
133.49
92.58
58.19
33.83
20.24
15.63
16.69
20.03
23.62
27.52
33.84
44.90
61.48
82.02
102.60
117.79
122.08
111.41
84.37
43.97
-3.65
-50.00
-85.46
-101.83
-95.45
-69.44
-33.44
-0.47
19.85
22.55
9.20
-12.39
-31.34
-38.49
-29.50
-4.93
32.20
82.51
145.94
220.47
301.52
381.72
451.23
500.11
521.55
514.22
486.32
445.58
395.60
337.16
271.23
201.20
133.77
77.40
14.86
-51.60
-110.54
-154.33
-183.49
-201.03
-208.54
-207.38
-200.23
-194.73
-193.53
-198.34
-210.17
-227.41
-246.26
-263.88
-277.82
-288.76
-299.79
-310.68
-313.38
-303.57
-281.95
-253.19
-223.14
-196.37
-175.19
-158.89
-142.05
-120.66
-91.42
-54.67
-13.00
30.73
75.01
120.07
167.57
209.06
236.63
243.13
225.87
188.64
140.81
93.62
55.76
30.38
15.51
7.80
3.90
2.72
4.63
9.88
16.91
23.06
25.81
24.35
21.23
19.52
20.81
23.25
22.55
14.11
-3.39
-25.43
-43.57
-49.03
-40.69
-20.88
3.25
23.33
33.01
31.05
20.64
6.66
-6.72
-17.84
-26.96
-36.15
-43.11
-47.33
-48.81
-48.41
-48.02
-49.65
-54.33
-60.94
-67.06
-69.61
-67.00
-59.27
-48.59
-38.64
-33.15
-34.21
-41.03
-50.58
-58.61
-62.00
-59.56
-52.81
-45.62
-42.76
-47.78
-60.94
-78.69
-94.17
-99.68
-89.30
-61.86
-22.21
19.80
52.86
68.64
65.28
48.24
28.12
16.82
23.18
49.96
92.90
142.26
185.92
213.10
217.42
198.41
161.25
114.68
68.22
29.50
2.75
-11.39
-14.97
-11.28
-3.90
3.85
9.32
10.69
7.38
0.22
-8.75
-17.02
-22.33
-23.52
-20.89
-16.01
-11.05
-7.95
-7.74
-10.27
-14.49
-18.88
-22.11
-23.49
-22.96
-21.04
-18.50
-16.01
-13.83
-11.78
-9.44
-6.46
-2.85
0.89
3.93
5.49
5.09
2.90
-0.41
-3.93
-6.96
-9.45
-12.26
-17.08
-25.72
-39.25
-57.04
-76.70
-94.81
-108.07
-114.40
-113.64
-107.28
-97.63
-86.89
-76.45
-67.16
-59.85
-55.47
-54.78
-57.91
-64.11
-71.83
-79.27
-84.57
-86.79
-86.31
-84.44
-82.48
-81.13
-80.36
-79.53
-77.69
-73.53
-66.55
-58.02
-50.50
-46.57
-47.55
-52.78
-59.40
-63.25
-59.34
-44.42
-18.63
14.97
52.29
89.61
124.46
155.58
177.14
185.39
182.40
173.00
160.83
147.76
134.43
121.07
107.96
95.44
84.80
77.41
74.04
74.69
78.64
83.29
83.77
74.17
50.14
12.21
-33.81
-78.43
-112.93
-130.47
-128.83
-111.17
-84.28
-55.71
-30.77
-12.03
-0.05
4.91
4.48
1.47
-0.30
3.36
15.23
35.26
59.46
80.89
92.51
90.73
76.49
54.49
30.99
11.15
-2.35
-9.27
-10.72
-7.98
-1.82
6.91
16.69
25.44
30.77
31.12
25.86
16.41
5.88
-1.56
-2.33
5.08
19.43
36.69
51.15
57.30
51.86
35.09
11.22
-13.19
-31.59
-40.00
-38.45
-30.69
-22.35
-18.37
-20.97
-28.70
-37.41
-42.19
-39.27
-27.10
-7.01
16.97
39.30
53.19
54.23
41.70
18.64
-8.91
-33.83
-51.49
-59.94
-60.54
-57.30
-54.62
-54.98
-57.47
-58.16
-52.25
-35.07
-8.95
19.12
41.29
53.12
56.14
54.82
53.55
55.08
60.78
70.33
82.76
96.01
106.99
111.60
106.12
89.49
60.47
24.39
-10.75
-38.07
-55.34
-66.10
-78.15
-99.91
-136.36
-186.86
-244.80
-300.96
-346.12
-373.36
-379.34
-364.61
-332.92
-289.57
-239.58
-186.21
-131.76
-78.26
-27.81
17.40
55.37
84.62
104.65
116.04
120.63
121.10
120.53
123.20
134.05
156.85
192.23
237.09
285.56
331.13
368.55
393.74
405.82
406.27
396.74
377.60
348.63
310.61
266.33
220.41
175.92
136.16
103.84
79.30
59.69
40.48
17.43
-12.52
-51.10
-101.70
-164.12
-233.02
-299.23
-353.29
-388.39
-402.79
-400.63
-372.60
-323.90
-269.96
-222.04
-179.42
-137.27
-94.90
-56.63
-27.70
-10.21
-4.74
-6.19
-10.20
-14.54
-19.92
-27.94
-38.92
-51.18
-62.20
-72.25
-81.31
-88.43
-92.42
-91.90
-85.46
-71.62
-49.46
-19.33
15.81
53.06
90.40
126.62
160.26
189.48
212.70
229.18
239.35
244.05
245.04
244.23
242.80
240.61
236.51
229.31
218.48
204.50
188.44
171.83
155.99
141.37
126.95
110.02
86.95
54.47
11.35
-40.34
-95.20
-145.81
-185.22
-209.37
-218.47
-216.40
-208.78
-200.40
-193.47
-187.26
-178.92
-164.99
-142.78
-111.40
-72.36
-29.80
10.08
40.46
56.10
55.73
43.15
26.66
16.17
19.87
41.23
77.78
122.39
165.59
198.32
214.17
210.68
189.90
158.01
123.85
96.50
82.28
82.31
91.93
102.41
104.48
92.08
64.72
27.27
-12.32
-46.34
-70.00
-82.46
-86.24
-85.59
-84.95
-87.84
-96.45
-111.63
-132.73
-157.62
-182.37
-201.48
-209.13
-200.77
-174.97
-134.51
-85.95
-37.80
2.04
28.64
41.08
41.91
35.62
26.69
18.33
12.11
8.42
7.09
7.92
10.72
15.09
20.33
25.53
29.79
32.71
34.58
36.23
38.49
41.55
44.62
46.33
45.67
43.04
40.56
41.30
47.81
60.79
78.64
98.56
118.19
137.05
156.65
179.27
206.48
237.63
270.66
303.15
332.80
357.35
374.32
381.10
375.60
357.20
327.01
288.45
246.30
205.00
167.10
133.07
102.10
73.18
45.81
18.79
-8.33
-35.23
-61.45
-87.13
-112.89
-139.36
-166.89
-195.48
-227.86
-264.23
-301.08
-333.01
-356.05
-369.03
-373.13
-371.05
-366.08
-367.80
-381.19
-403.91
-429.72
-454.36
-477.12
-499.46
-523.32
-549.93
-589.43
-643.95
-703.69
-753.17
-781.36
-785.21
-767.58
-734.27
-691.60
-658.45
-644.21
-643.78
-644.77
-639.07
-625.44
-605.86
-582.33
-470.17
-248.38
29.32
282.73
468.99
587.51
655.61
691.49
708.20
713.25
696.86
655.40
598.12
541.42
496.98
468.27
453.50
448.52
448.66
438.84
410.94
368.77
322.23
279.09
241.87
209.86
181.64
156.88
130.55
103.92
82.83
73.59
77.78
91.93
110.97
131.25
150.94
165.25
169.61
160.57
137.17
102.16
63.43
32.46
19.10
26.03
44.76
60.75
61.39
42.89
12.38
-16.35
-30.38
-25.13
-6.38
13.79
24.23
20.63
7.01
-7.92
-16.35
-15.69
-8.96
-2.01
0.50
-2.31
-7.69
-11.29
-9.95
-3.59
4.89
11.32
12.24
7.02
-2.09
-11.23
-16.83
-17.30
-13.56
-8.27
-4.22
-2.94
-4.02
-5.65
-5.75
-3.20
1.50
6.86
11.25
13.69
14.02
12.53
9.80
6.27
2.52
-0.43
-1.16
1.72
9.08
20.75
35.26
50.66
65.02
76.66
84.18
86.14
80.71
66.25
42.53
11.83
-20.21
-46.01
-58.91
-55.77
-38.57
-14.00
9.24
23.86
26.29
18.23
5.09
-7.04
-13.64
-13.09
-6.74
1.87
11.03
17.16
17.56
11.26
-1.44
-18.46
-36.43
-52.02
-63.11
-69.03
-70.46
-68.45
-64.41
-61.28
-60.58
-61.30
-61.00
-57.83
-51.38
-42.62
-32.98
-24.22
-19.87
-21.06
-25.07
-27.42
-24.85
-16.39
-2.88
13.25
27.13
29.24
12.24
-24.42
-74.58
-127.93
-172.82
-198.41
-197.68
-153.59
-72.24
15.75
79.01
106.17
106.31
93.45
78.54
69.42
70.32
79.29
93.87
112.22
131.62
147.23
153.41
146.76
127.46
98.56
62.70
24.21
-11.37
-40.15
-62.29
-80.85
-98.27
-114.34
-126.58
-133.14
-132.21
-122.27
-102.98
-75.87
-43.95
-10.22
22.60
51.85
74.37
88.05
92.76
90.24
83.26
74.76
67.26
62.30
60.03
59.23
58.25
55.69
50.98
44.52
37.35
30.76
25.67
22.43
20.63
19.36
17.01
12.43
5.53
-2.71
-11.00
-18.25
-23.87
-27.87
-30.77
-34.17
-39.40
-46.76
-55.71
-65.57
-75.76
-85.51
-93.56
-98.26
-99.26
-96.75
-91.39
-84.58
-78.56
-75.50
-75.96
-78.21
-72.44
-52.66
-21.43
12.33
40.66
59.75
69.69
73.05
73.24
72.94
72.18
69.97
65.93
60.88
56.15
53.04
52.20
53.48
56.01
57.71
57.06
54.14
50.59
48.29
48.38
50.53
53.06
53.54
49.32
39.09
23.70
5.71
-11.86
-26.41
-36.66
-42.73
-45.77
-47.68
-50.00
-53.26
-56.96
-60.68
-63.21
-64.25
-64.20
-63.74
-63.60
-63.95
-64.30
-63.18
-60.07
-54.07
-44.48
-30.93
-13.69
6.11
26.27
43.83
55.91
60.68
58.51
51.65
43.46
36.97
33.62
32.82
32.66
31.24
27.80
23.17
18.95
16.35
15.40
15.08
14.11
11.89
8.85
5.98
4.18
3.75
4.23
4.79
4.85
4.35
3.70
3.43
3.82
4.75
5.72
6.04
5.21
3.18
0.40
-2.38
-4.52
-5.63
-5.78
-5.42
-5.27
-5.82
-6.99
-8.08
-8.29
-7.37
-5.87
-4.91
-5.73
-8.99
-14.22
-19.68
-23.16
-23.24
-20.31
-16.25
-13.36
-13.61
-17.67
-25.03
-33.86
-42.10
-48.58
-53.39
-56.80
-58.52
-58.91
-59.47
-62.54
-68.85
-76.43
-80.56
-75.43
-55.24
-16.46
38.42
101.28
161.82
208.07
231.89
232.19
214.01
187.24
162.82
146.16
135.78
118.19
86.03
41.59
-5.93
-48.20
-85.63
-118.96
-149.57
-173.16
-184.62
-178.01
-150.41
-97.78
-33.13
23.48
60.55
78.65
85.28
86.67
85.89
82.36
74.00
60.43
42.36
23.89
8.90
-0.22
-4.45
-6.04
-6.62
-6.74
-7.07
-5.74
-1.80
3.74
9.97
14.32
14.83
12.33
9.60
9.08
12.33
18.06
22.82
25.49
23.84
16.18
4.21
-8.23
-17.60
-21.80
-22.66
-24.29
-27.96
-37.65
-58.36
-91.37
-134.07
-181.18
-213.55
-214.45
-199.96
-180.31
-155.84
-133.29
-118.40
-113.56
-116.95
-122.66
-124.01
-114.18
-76.22
-7.10
78.36
158.86
218.49
250.30
253.97
231.78
189.00
136.10
81.93
32.89
-5.50
-30.00
-40.44
-38.97
-30.69
-18.84
-4.92
8.02
17.04
21.98
24.91
28.36
33.86
40.73
47.07
51.08
50.48
44.07
33.03
20.21
8.05
-0.76
-4.82
-4.08
0.35
6.18
11.13
14.09
15.19
15.36
15.74
17.01
19.28
22.03
24.43
25.92
26.46
26.38
26.02
25.52
24.60
22.83
19.83
15.65
10.77
5.92
1.79
-1.25
-3.18
-4.32
-5.04
-5.61
-6.02
-6.15
-5.84
-5.11
-4.05
-2.83
-1.61
-0.46
0.61
1.60
2.46
3.02
3.05
2.34
0.86
-1.20
-3.43
-5.34
-6.48
-6.64
-5.91
-4.62
-3.23
-2.11
-1.41
-0.99
-0.53
0.36
1.94
4.19
6.86
9.52
11.76
13.42
14.64
15.96
18.05
21.57
26.95
34.21
43.05
52.96
63.39
73.91
84.29
94.66
105.40
117.02
129.71
142.91
155.01
163.52
165.79
159.94
145.51
123.60
96.20
65.37
32.64
-0.76
-33.18
-61.96
-83.61
-95.06
-95.25
-86.17
-72.40
-59.48
-51.81
-51.30
-57.41
-68.53
-83.14
-100.54
-120.34
-141.69
-163.13
-183.58
-203.66
-226.24
-254.92
-291.11
-331.35
-366.99
-386.64
-380.77
-345.82
-285.79
-210.48
-131.33
-57.54
6.30
59.79
104.37
140.33
166.32
180.30
181.39
171.14
153.36
133.21
115.60
103.67
97.22
93.92
90.74
85.56
78.28
70.16
63.86
62.35
67.53
78.03
90.57
101.50
108.52
111.35
109.78
104.93
98.76
93.36
86.56
75.46
58.25
35.61
10.44
-16.61
-43.46
-65.96
-78.38
-83.08
-84.35
-86.46
-91.58
-99.79
-114.99
-137.66
-162.77
-179.81
-189.12
-192.58
-192.49
-189.97
-186.37
-191.33
-212.04
-247.84
-287.33
-329.17
-369.88
-404.87
-428.23
-391.69
-280.80
-128.22
-4.46
95.18
178.84
254.48
317.93
363.71
388.50
385.46
355.13
297.88
250.68
217.18
197.03
184.70
173.62
158.36
130.42
87.37
35.78
-8.62
-38.65
-47.13
-36.99
-18.37
1.32
17.71
31.39
45.07
63.71
80.15
86.53
76.95
51.82
18.42
-16.25
-43.26
-55.08
-46.14
-20.32
15.16
51.13
75.77
83.37
77.21
65.45
54.76
48.69
45.87
44.02
40.80
34.93
26.86
16.80
4.34
-10.77
-27.07
-42.03
-52.93
-58.56
-60.29
-58.66
-54.59
-49.29
-43.84
-38.75
-34.15
-30.31
-27.74
-26.73
-26.51
-25.88
-23.88
-20.21
-15.23
-9.62
-4.14
0.63
4.72
8.02
10.82
13.24
15.11
16.11
16.27
15.74
14.64
12.87
10.30
6.87
2.73
-1.84
-6.36
-9.75
-11.08
-10.38
-8.79
-7.81
-8.59
-11.15
-14.99
-19.27
-22.03
-21.77
-18.72
-15.05
-13.34
-15.32
-20.46
-27.27
-33.88
-36.70
-32.83
-22.07
-7.37
7.24
18.37
25.49
28.84
29.28
30.66
37.52
52.63
75.98
106.40
142.08
181.85
221.60
239.19
216.36
154.03
74.11
2.96
-38.98
-53.22
-44.96
-22.10
6.97
36.34
62.02
80.67
89.07
85.20
70.15
50.01
31.71
20.62
20.75
32.48
51.50
70.34
81.25
80.40
69.15
49.70
23.50
-6.76
-36.68
-61.19
-76.32
-82.43
-81.99
-78.44
-76.86
-81.94
-94.99
-113.97
-136.31
-160.82
-189.82
-222.86
-254.44
-276.42
-281.46
-265.24
-228.06
-175.59
-102.92
-22.45
45.29
88.00
107.69
113.08
111.63
106.99
99.45
87.20
67.59
42.41
17.44
-1.11
-9.87
-9.29
0.37
15.44
31.09
41.81
46.11
46.30
45.70
46.04
47.08
47.46
45.41
40.35
32.28
23.31
16.18
12.32
10.87
9.65
6.71
0.90
-7.30
-16.69
-25.25
-31.46
-34.82
-35.61
-34.24
-30.86
-25.62
-18.53
-9.80
0.32
10.66
19.92
27.41
33.30
38.15
42.22
45.55
48.19
50.23
50.46
47.65
41.72
33.86
25.69
18.36
12.48
8.26
5.51
1.59
-6.78
-21.84
-44.06
-72.59
-105.87
-141.70
-177.39
-199.20
-196.71
-170.28
-130.82
-90.43
-55.43
-26.95
-3.95
14.65
29.32
38.31
39.60
34.55
26.54
19.59
16.34
17.43
21.90
27.91
32.06
31.44
25.19
14.49
1.94
-9.92
-19.19
-24.79
-25.39
-21.89
-17.25
-15.11
-18.04
-25.34
-34.85
-43.93
-51.09
-55.81
-58.45
-59.05
-55.63
-46.42
-29.28
-3.72
28.62
64.44
100.46
134.57
166.51
197.27
220.22
229.59
222.96
202.73
173.72
139.93
103.55
66.00
28.57
-7.24
-38.57
-62.54
-77.15
-81.95
-77.88
-67.68
-54.27
-41.44
-33.26
-32.15
-37.51
-45.86
-52.79
-54.88
-50.88
-41.54
-29.04
-15.60
-2.17
10.80
22.24
29.94
31.65
26.66
16.90
6.41
-0.19
0.25
7.52
17.72
24.85
23.74
12.14
-8.42
-33.35
-56.46
-71.53
-73.87
-61.69
-36.75
-3.67
31.22
62.13
85.63
101.25
110.10
113.02
109.79
97.46
74.44
42.08
5.10
-30.06
-57.99
-76.36
-85.81
-88.19
-84.60
-74.47
-56.65
-31.47
-1.99
26.44
47.79
57.99
56.20
44.12
25.00
2.47
-19.99
-39.45
-53.50
-60.51
-60.18
-53.76
-43.82
-33.09
-23.62
-16.09
-9.89
-3.83
3.27
12.05
22.38
33.28
43.36
51.42
56.89
59.86
60.91
60.96
60.99
61.90
63.87
66.18
67.95
68.60
67.75
65.27
61.45
57.04
52.96
49.52
45.60
40.53
34.77
29.17
24.11
18.99
11.76
1.58
-13.92
-38.25
-72.09
-111.90
-152.00
-187.19
-214.49
-233.55
-245.80
-253.53
-260.18
-266.31
-268.80
-264.24
-251.38
-231.26
-205.57
-174.85
-125.04
-54.87
24.01
95.89
149.19
178.56
184.14
171.02
147.75
123.40
104.38
90.35
81.23
76.04
72.94
70.29
67.42
64.47
61.74
57.85
50.76
42.21
34.83
30.59
30.14
32.79
36.76
39.64
38.21
30.72
18.42
3.74
-10.89
-23.69
-33.56
-40.11
-43.33
-43.92
-42.43
-38.54
-32.32
-24.55
-16.52
-9.65
-4.88
-2.37
-1.61
-1.46
-0.24
3.31
9.64
18.33
28.31
38.18
46.52
52.15
54.28
52.74
47.87
40.42
31.48
22.23
13.71
6.61
1.14
-2.94
-6.19
-9.26
-12.70
-16.78
-21.47
-26.40
-30.92
-34.14
-35.08
-32.82
-26.79
-16.91
-3.67
11.91
28.55
44.91
59.87
72.55
82.43
89.22
92.86
93.49
91.50
87.44
82.04
75.99
69.80
63.71
57.63
51.28
44.40
36.82
28.61
19.94
11.06
2.15
-6.58
-14.97
-22.85
-30.07
-36.64
-42.67
-48.40
-54.07
-59.76
-65.31
-70.22
-73.73
-74.99
-73.25
-68.11
-59.63
-48.33
-35.12
-21.05
-7.19
5.45
16.04
23.92
28.69
30.33
29.16
25.86
21.23
16.08
11.03
6.42
2.40
-1.09
-4.19
-7.13
-10.13
-13.38
-16.99
-20.91
-25.00
-29.04
-32.83
-36.25
-39.32
-42.13
-44.88
-47.74
-50.88
-54.32
-57.94
-61.38
-64.06
-65.21
-64.00
-59.72
-52.00
-40.93
-27.19
-11.88
3.64
18.05
30.31
39.79
46.30
50.01
51.33
50.85
49.17
46.86
44.31
41.78
39.38
37.14
35.03
33.03
31.03
28.88
26.37
23.33
19.73
15.70
11.53
7.50
3.79
0.39
-2.86
-6.18
-9.74
-13.65
-17.95
-22.52
-27.10
-31.18
-33.99
-34.68
-32.54
-27.21
-18.93
-8.45
3.14
14.65
25.04
33.54
39.72
43.46
44.97
44.66
43.07
40.71
37.98
35.09
32.10
29.07
26.09
23.33
20.89
18.79
16.83
14.77
12.32
9.38
6.00
2.36
-1.30
-4.84
-8.17
-11.28
-14.18
-16.88
-19.47
-22.08
-24.86
-27.89
-30.99
-33.63
-35.04
-34.38
-31.01
-24.76
-15.99
-5.55
5.48
15.99
25.11
32.25
37.14
39.78
40.46
39.59
37.72
35.41
33.09
31.04
29.33
27.88
26.55
25.19
23.72
22.03
20.03
17.63
14.77
11.45
7.80
3.99
0.20
-3.45
-6.93
-10.36
-13.93
-17.88
-22.36
-27.34
-32.49
-37.21
-40.76
-42.41
-41.65
-38.33
-32.60
-24.93
-15.97
-6.46
2.78
11.02
17.67
22.41
25.29
26.66
27.03
26.96
26.85
26.89
27.09
27.29
27.24
26.66
25.36
23.28
20.45
17.10
13.44
9.71
6.03
2.40
-1.20
-4.85
-8.57
-12.35
-16.18
-20.14
-24.30
-28.65
-33.02
-36.99
-39.97
-41.27
-40.41
-37.19
-31.86
-24.99
-17.35
-9.77
-2.91
2.76
6.92
9.43
10.37
9.96
8.52
6.37
3.85
1.31
-0.94
-2.76
-4.09
-4.86
-4.92
-4.04
-2.04
1.15
5.39
10.32
15.13
18.98
21.37
22.20
21.72
20.30
18.21
15.63
12.67
8.67
3.21
-3.35
-9.79
-14.65
-16.93
-16.52
-14.04
-10.60
-8.95
-11.30
-18.13
-27.85
-37.94
-46.35
-52.12
-55.31
-56.73
-60.04
-68.46
-83.03
-101.90
-121.83
-140.04
-154.77
-165.22
-171.06
-175.61
-182.01
-191.55
-203.30
-216.33
-231.59
-251.56
-278.19
-290.31
-270.36
-213.70
-132.81
-46.30
32.66
98.89
152.86
197.67
235.97
264.42
277.29
270.50
245.55
209.76
173.55
146.63
134.48
136.41
143.80
146.16
136.56
114.71
86.07
58.35
38.25
29.31
31.32
39.48
48.15
53.74
55.96
56.80
58.32
61.50
65.24
67.52
65.67
57.85
44.74
28.70
12.90
-0.15
-9.25
-14.60
-17.40
-19.43
-22.05
-25.51
-29.44
-32.45
-34.03
-34.72
-35.92
-38.87
-43.36
-47.46
-48.08
-42.65
-30.77
-15.17
-0.75
7.65
7.49
-0.26
-12.11
-23.79
-31.93
-34.76
-32.01
-23.98
-11.25
5.07
23.10
39.62
50.89
54.03
48.30
35.59
20.17
7.45
2.17
7.17
21.93
42.93
65.32
84.30
96.78
101.76
99.93
90.18
73.33
51.05
26.23
3.45
-12.96
-20.88
-22.19
-22.90
-31.45
-54.96
-96.66
-153.76
-216.70
-272.99
-310.84
-322.63
-306.60
-266.51
-209.10
-142.23
-73.04
-6.30
53.65
102.50
136.75
155.47
161.48
161.23
162.14
161.49
156.98
147.09
132.33
114.66
97.15
82.89
73.91
69.53
66.42
61.02
49.87
31.42
6.60
-20.83
-48.00
-72.08
-91.52
-106.49
-117.58
-125.04
-127.43
-122.25
-107.56
-83.65
-53.37
-21.48
7.34
30.38
45.70
54.29
59.52
65.23
74.23
87.59
103.95
119.65
129.31
127.95
113.55
87.25
51.73
10.40
-33.24
-75.57
-108.28
-127.32
-135.50
-136.74
-131.13
-116.43
-90.94
-55.62
-15.05
23.30
52.90
70.92
78.75
81.36
82.95
83.95
80.24
65.33
34.57
-11.82
-67.30
-121.97
-161.86
-178.15
-171.00
-148.27
-120.52
-95.44
-75.67
-59.60
-44.78
-30.91
-21.74
-22.20
-34.31
-55.05
-77.42
-93.79
-99.43
-93.88
-79.84
-62.20
-45.47
-32.02
-21.98
-14.31
-7.99
-2.87
0.57
2.44
3.42
4.89
8.93
17.49
31.49
50.49
72.65
95.41
117.22
136.68
152.40
163.39
169.43
170.75
168.31
163.02
155.58
148.13
141.83
136.14
129.78
122.12
112.94
103.23
93.82
85.03
79.33
77.63
78.19
78.04
75.15
68.33
59.12
49.89
43.17
44.50
56.75
78.29
104.47
130.38
151.27
166.08
175.62
160.17
116.16
59.68
13.50
-10.87
-9.01
3.97
13.97
9.84
-14.65
-61.19
-122.62
-186.49
-239.12
-268.97
-271.31
-245.79
-197.24
-133.91
-58.72
12.30
59.91
76.19
69.05
53.02
43.31
48.81
70.21
102.90
138.16
170.15
194.14
207.11
205.99
190.43
162.28
125.46
85.92
48.98
18.44
-5.82
-22.27
-34.07
-45.48
-60.59
-82.26
-111.26
-146.61
-184.68
-220.36
-248.07
-264.42
-268.13
-260.78
-246.14
-228.91
-212.88
-199.89
-190.66
-185.68
-186.50
-194.27
-208.63
-226.71
-243.43
-252.60
-249.55
-233.30
-206.44
-173.96
-140.98
-111.49
-88.06
-72.09
-63.37
-61.37
-65.77
-75.68
-88.57
-100.28
-105.86
-100.64
-80.99
-43.68
11.34
79.46
152.27
220.30
274.98
309.94
322.05
312.16
286.91
255.29
225.36
202.65
190.09
186.83
188.24
187.55
168.21
125.07
70.67
24.79
-1.42
-8.12
-2.36
7.11
12.74
10.18
0.26
-14.22
-29.57
-44.88
-57.64
-64.32
-62.22
-51.80
-36.90
-22.09
-12.39
-12.12
-22.84
-41.53
-63.53
-80.94
-87.55
-81.37
-63.99
-40.05
-15.07
6.83
24.85
40.31
54.99
69.08
81.41
90.68
95.59
94.83
86.99
71.39
48.43
20.09
-10.51
-39.59
-63.55
-80.33
-90.07
-94.70
-96.47
-96.61
-94.43
-87.72
-73.55
-49.67
-15.72
25.99
70.26
109.53
135.36
141.27
125.41
92.46
53.14
21.34
9.83
25.93
69.23
131.77
201.26
265.03
313.27
340.33
344.38
326.49
289.71
238.66
178.50
115.49
56.86
9.62
-21.44
-35.27
-35.09
-27.59
-20.69
-22.26
-35.65
-57.99
-81.96
-100.66
-111.53
-116.97
-122.16
-131.37
-147.78
-170.08
-192.72
-209.33
-217.04
-217.49
-214.24
-209.77
-203.88
-197.62
-191.29
-184.53
-177.79
-174.61
-180.74
-200.03
-231.11
-245.68
-220.74
-155.09
-69.31
13.48
78.92
122.40
146.97
159.51
166.13
165.60
153.97
129.46
95.69
59.90
29.68
10.35
3.58
7.35
13.59
16.49
13.46
5.65
-4.44
-14.87
-24.33
-31.47
-32.97
-29.06
-20.59
-8.89
4.33
17.11
27.97
37.21
46.76
58.68
72.42
85.48
94.40
96.73
92.29
83.00
72.00
61.90
53.60
45.93
37.47
28.10
18.44
10.28
5.02
2.91
2.78
2.71
0.95
-3.06
-8.80
-15.02
-20.30
-23.76
-25.30
-25.39
-24.76
-23.92
-23.06
-22.12
-21.14
-20.23
-19.70
-19.87
-20.81
-22.18
-23.19
-22.89
-20.59
-16.10
-9.68
-1.72
7.72
19.16
32.88
49.01
67.00
85.37
101.93
114.39
121.24
122.42
119.44
114.82
111.23
110.28
111.76
113.82
113.82
109.61
100.73
88.70
76.21
66.12
59.88
56.85
54.77
50.51
41.09
24.26
-1.24
-34.96
-73.57
-110.19
-135.12
-138.86
-116.43
-70.92
-13.67
39.31
73.50
81.27
63.77
28.67
-14.70
-59.72
-104.02
-148.17
-192.91
-237.17
-277.88
-311.28
-334.43
-345.77
-345.03
-332.18
-307.00
-269.35
-219.60
-159.58
-92.97
-25.04
38.15
91.26
131.10
157.57
173.37
182.88
190.41
198.70
208.43
218.69
227.80
234.16
236.42
233.49
224.50
209.25
188.69
165.14
141.72
121.24
105.17
93.31
84.28
76.68
69.66
62.99
56.51
49.60
41.16
30.26
17.02
3.02
-9.07
-16.52
-17.80
-13.31
-5.28
3.00
8.48
9.36
5.49
-2.03
-11.81
-23.17
-36.60
-53.31
-74.25
-98.90
-124.64
-147.18
-161.95
-165.74
-158.19
-142.19
-123.01
-106.96
-99.83
-105.69
-126.01
-158.87
-198.48
-235.55
-259.24
-260.58
-236.22
-190.78
-135.93
-86.21
-53.38
-41.95
-48.25
-63.21
-77.15
-83.78
-81.45
-71.84
-57.36
-39.28
-17.49
8.44
38.08
69.57
99.89
125.63
143.66
151.71
148.88
135.91
115.28
90.65
65.85
43.62
24.92
9.03
-5.42
-19.36
-32.48
-43.39
-50.42
-52.48
-49.44
-41.97
-30.98
-17.13
-0.69
18.09
38.55
59.21
77.82
91.93
99.68
100.52
95.41
86.55
76.45
67.25
60.14
55.22
51.74
48.65
45.08
40.60
35.24
29.14
22.54
15.78
9.22
3.06
-2.64
-7.98
-13.15
-18.44
-24.52
-31.92
-40.69
-50.31
-59.82
-67.78
-72.51
-72.42
-66.58
-55.94
-42.21
-26.94
-11.35
3.48
16.71
27.82
36.59
42.93
44.97
41.60
33.71
23.57
13.36
4.60
-1.84
-5.59
-6.89
-9.37
-15.97
-26.91
-40.35
-54.46
-67.97
-79.81
-88.91
-94.50
-100.23
-109.22
-121.74
-136.25
-151.96
-169.40
-189.37
-211.85
-211.96
-177.10
-115.51
-46.75
15.67
66.78
105.56
132.50
149.44
159.36
161.84
157.15
147.62
136.62
126.26
117.39
110.69
107.01
106.91
107.42
106.06
102.66
98.58
94.37
89.13
81.41
70.45
56.90
41.03
24.52
10.18
0.31
-4.93
-7.06
-7.95
-8.65
-9.41
-11.10
-14.35
-19.04
-24.02
-27.57
-27.96
-24.37
-17.57
-9.93
-4.68
-3.91
-7.53
-13.33
-18.34
-20.24
-18.27
-13.05
-6.06
0.84
6.03
7.81
4.58
-4.64
-19.20
-35.82
-48.76
-51.53
-40.63
-17.47
11.53
37.61
53.52
56.73
49.91
38.75
28.58
21.96
18.45
16.18
13.69
10.85
8.35
6.73
5.85
5.13
4.32
3.87
4.25
5.35
6.15
5.29
1.93
-3.60
-9.88
-15.28
-18.70
-20.01
-19.74
-18.59
-17.00
-15.19
-13.16
-10.93
-8.65
-6.64
-5.46
-5.88
-8.56
-13.50
-19.78
-25.38
-27.92
-25.68
-18.56
-8.28
2.12
9.59
12.28
10.39
6.15
2.87
3.72
10.28
22.00
36.34
49.66
58.57
61.11
57.25
48.60
37.46
25.90
15.13
5.52
-3.09
-10.81
-17.37
-22.16
-24.54
-24.16
-21.39
-17.32
-13.44
-10.97
-10.39
-11.36
-12.88
-13.88
-13.30
-10.55
-5.44
2.18
12.29
24.56
37.84
50.14
57.59
56.45
44.41
22.05
-6.64
-35.20
-56.67
-65.87
-61.04
-44.16
-19.88
5.76
26.96
39.38
40.86
31.99
15.85
-2.81
-19.03
-29.04
-31.42
-27.15
-18.88
-9.70
-1.93
3.27
5.68
5.65
3.80
0.55
-3.68
-8.35
-13.00
-16.82
-19.35
-20.37
-20.11
-18.98
-17.45
-15.72
-13.65
-10.61
-5.35
2.82
13.42
24.73
34.14
38.77
36.53
26.54
9.67
-10.98
-31.75
-49.45
-61.58
-66.51
-63.90
-54.85
-42.24
-30.13
-22.01
-20.63
-27.16
-40.06
-55.53
-69.51
-77.84
-78.34
-76.06
-73.60
-69.45
-61.49
-47.49
-25.97
1.94
32.78
62.12
86.52
105.16
118.34
126.45
129.68
128.78
123.83
114.75
102.06
87.45
73.99
64.23
59.30
59.04
63.27
70.13
76.61
79.83
78.16
71.84
61.91
49.46
28.71
0.71
-28.20
-51.88
-68.36
-78.55
-83.69
-84.71
-82.42
-77.55
-69.94
-60.49
-51.03
-43.04
-37.20
-33.47
-31.54
-31.16
-31.87
-32.36
-31.97
-30.77
-29.10
-27.04
-24.40
-20.86
-17.42
-14.53
-12.03
-10.11
-9.39
-10.58
-14.08
-19.87
-27.67
-37.03
-47.23
-57.35
-66.68
-74.71
-80.79
-83.97
-83.14
-77.41
-66.57
-51.02
-31.88
-10.81
10.32
29.82
46.40
59.23
67.92
72.49
73.42
71.53
67.74
62.88
57.52
51.89
45.99
39.76
33.30
26.89
20.85
15.36
10.31
5.40
0.24
-5.48
-11.91
-19.04
-26.62
-34.29
-41.51
-47.64
-51.96
-53.87
-52.96
-49.04
-42.11
-32.35
-20.17
-6.30
8.13
21.69
32.86
40.51
44.13
44.03
41.11
36.57
31.48
26.48
21.65
16.70
11.20
4.93
-1.94
-8.88
-15.21
-20.48
-24.64
-28.15
-31.73
-35.96
-40.99
-46.33
-51.00
-53.78
-53.58
-49.64
-41.66
-29.78
-14.54
3.19
22.19
40.98
57.96
71.67
81.00
85.52
85.54
82.02
76.30
69.63
62.89
56.30
49.54
42.06
33.45
23.79
13.67
3.93
-4.73
-12.09
-18.61
-25.17
-32.85
-42.36
-53.75
-66.09
-77.45
-85.24
-86.71
-79.96
-64.73
-42.70
-16.96
8.85
31.69
49.99
63.81
74.42
83.19
90.72
96.64
100.06
100.29
97.36
92.03
85.47
79.01
73.16
67.45
60.90
52.67
42.52
30.80
18.18
5.44
-5.88
-15.11
-22.83
-30.29
-38.48
-47.68
-57.53
-67.15
-75.34
-78.92
-76.08
-67.32
-54.60
-39.70
-23.53
-6.30
12.12
32.10
56.85
87.25
120.65
152.49
179.31
199.93
214.99
225.88
234.02
244.02
257.18
270.25
278.06
277.33
267.71
250.72
227.88
175.55
89.29
-13.86
-109.08
-181.73
-229.61
-256.74
-268.75
-271.15
-267.81
-256.47
-235.22
-205.42
-171.44
-138.41
-111.70
-94.24
-87.22
-88.83
-91.27
-87.51
-74.99
-56.29
-36.95
-23.15
-19.73
-29.08
-50.19
-77.70
-103.68
-120.05
-120.02
-99.33
-58.32
-3.76
51.68
93.42
111.44
103.49
75.36
38.09
3.10
-22.54
-37.89
-46.48
-52.62
-58.08
-61.81
-61.58
-55.69
-43.96
-27.68
-9.37
8.11
22.28
31.56
35.87
36.53
35.49
34.47
34.00
33.23
30.63
25.17
17.25
8.50
0.97
-3.98
-6.31
-7.09
-7.57
-8.34
-9.05
-8.84
-6.95
-3.40
1.00
4.69
5.99
4.01
-0.88
-7.28
-13.47
-18.08
-20.58
-21.11
-20.36
-19.26
-18.19
-16.80
-14.39
-10.42
-4.45
3.89
15.01
28.55
42.31
53.63
60.59
62.37
59.21
52.23
42.32
31.62
22.17
13.73
6.53
2.61
4.65
13.62
27.85
43.44
55.60
60.10
52.27
32.13
5.77
-18.14
-33.37
-38.23
-35.14
-29.25
-26.59
-35.94
-62.05
-102.76
-151.28
-200.14
-242.56
-272.46
-285.54
-258.58
-188.30
-98.42
-19.32
34.64
65.58
82.59
94.90
107.93
122.91
134.10
136.07
127.42
109.50
83.98
53.28
23.10
-1.14
-13.53
-13.42
-3.42
12.41
29.18
42.68
49.32
52.20
58.14
72.45
93.02
112.93
125.16
125.82
115.23
98.53
80.96
66.80
58.37
55.10
55.64
59.35
66.26
76.48
89.91
106.42
125.01
143.58
158.72
166.87
165.84
155.65
138.15
115.80
92.31
70.48
51.34
34.11
17.27
-0.30
-18.47
-36.00
-51.20
-62.80
-70.74
-76.19
-81.03
-86.78
-93.56
-99.81
-102.98
-100.78
-92.44
-79.35
-64.47
-50.97
-40.71
-33.49
-27.58
-20.92
-12.34
-2.03
8.81
19.11
28.73
38.48
49.39
61.56
73.64
83.10
87.30
84.63
75.38
61.64
46.51
32.99
23.12
17.73
16.65
19.19
24.44
31.44
39.24
47.08
54.75
62.82
72.38
84.44
98.95
114.30
127.37
134.54
133.06
122.20
103.80
81.83
61.29
46.76
41.25
45.34
56.94
71.68
83.95
88.46
81.80
63.58
36.51
5.34
-24.78
-50.15
-69.60
-84.47
-97.53
-111.43
-127.41
-144.82
-161.68
-175.65
-185.37
-191.07
-194.52
-198.13
-203.83
-212.21
-222.27
-232.05
-239.34
-242.54
-241.12
-235.62
-227.03
-215.86
-201.41
-181.64
-154.07
-117.51
-73.75
-28.23
11.01
35.60
40.01
23.71
-8.30
-47.10
-82.52
-106.10
-113.25
-104.10
-82.89
-56.09
-30.35
-10.57
1.11
5.13
3.72
-0.18
-3.77
-5.19
-3.90
-0.95
1.27
0.09
-6.17
-16.96
-29.11
-37.66
-37.88
-27.38
-7.70
15.60
34.63
41.59
31.77
5.55
-31.20
-68.75
-96.61
-107.27
-98.90
-75.86
-46.98
-21.98
-7.99
-7.43
-17.99
-34.44
-51.20
-64.30
-72.22
-75.32
-74.60
-70.83
-64.29
-55.32
-44.95
-35.11
-27.93
-24.65
-24.85
-26.38
-26.28
-22.12
-13.20
-0.80
12.46
23.93
32.05
36.86
39.44
40.90
41.49
40.41
36.46
29.17
19.36
9.11
0.92
-3.12
-1.74
5.46
18.04
34.54
52.21
67.03
74.56
71.28
56.23
31.77
3.23
-22.76
-40.42
-46.73
-42.48
-31.87
-21.04
-15.96
-20.31
-34.28
-54.65
-76.35
-94.66
-107.08
-113.88
-117.17
-119.18
-120.59
-120.23
-115.82
-105.60
-89.63
-70.34
-51.71
-38.32
-34.64
-44.36
-69.43
-108.95
-158.22
-208.85
-250.56
-273.98
-273.78
-250.57
-210.40
-162.10
-113.73
-70.20
-32.61
0.11
30.05
59.21
89.03
120.62
154.96
192.44
231.75
269.25
298.57
314.27
314.90
303.91
288.29
275.64
270.77
273.08
276.77
271.79
251.54
216.29
171.77
125.14
81.76
43.93
11.25
-17.70
-46.86
-76.57
-103.06
-122.56
-134.69
-142.57
-150.38
-161.13
-175.32
-194.80
-216.90
-234.68
-241.98
-237.29
-223.51
-205.11
-186.07
-142.39
-71.30
8.32
75.32
122.31
152.08
168.90
175.81
174.38
165.84
148.43
124.54
101.71
86.93
83.33
89.70
103.18
120.06
136.59
147.33
146.51
136.24
122.32
109.71
100.14
93.85
91.12
90.22
89.03
88.38
91.84
101.57
116.05
123.60
115.94
88.45
42.99
-12.04
-62.68
-95.66
-105.96
-94.90
-69.40
-37.55
-6.43
19.97
36.48
40.78
35.78
26.12
15.10
3.91
-6.87
-16.47
-23.96
-28.53
-29.69
-27.96
-25.14
-23.19
-23.19
-25.04
-27.60
-29.70
-30.63
-29.82
-27.10
-22.78
-17.11
-9.43
-0.06
10.83
22.57
34.05
44.58
54.05
62.72
69.14
74.98
80.90
87.27
93.41
97.56
97.57
91.44
78.10
58.43
37.35
18.07
4.93
0.44
3.41
9.38
12.24
6.68
-9.46
-33.89
-61.54
-85.44
-98.85
-99.13
-87.50
-67.96
-45.76
-25.87
-11.75
-5.43
-6.73
-14.09
-25.06
-37.27
-48.35
-56.43
-60.45
-59.81
-54.58
-45.10
-32.62
-19.51
-8.30
-1.30
0.42
-2.04
-5.63
-6.58
-1.99
8.73
23.45
39.14
52.75
62.39
67.46
67.67
62.14
49.40
28.32
-3.09
-40.33
-74.29
-94.16
-91.70
-64.66
-17.69
39.39
95.14
139.97
168.52
179.22
173.11
152.52
120.69
82.07
42.18
6.55
-20.69
-37.86
-46.18
-49.07
-50.97
-55.78
-65.57
-80.31
-98.30
-116.38
-130.51
-136.24
-130.15
-111.63
-83.30
-49.82
-16.03
14.77
41.85
63.14
76.59
82.77
83.62
80.25
73.38
64.85
57.53
54.15
55.29
59.49
63.55
63.27
55.23
38.41
14.64
-12.28
-37.87
-59.02
-73.96
-82.58
-86.30
-87.19
-86.87
-86.03
-85.53
-83.92
-80.37
-74.38
-66.15
-56.82
-47.79
-39.61
-30.65
-19.60
-4.78
13.38
32.10
46.96
53.88
51.45
41.95
30.33
21.74
19.43
23.02
29.65
35.87
39.50
40.60
40.89
42.14
44.75
47.85
48.37
43.78
33.08
17.12
-2.24
-22.98
-43.02
-59.85
-69.83
-68.77
-53.34
-23.30
16.84
58.00
89.09
101.22
91.36
63.96
29.12
-1.61
-19.66
-22.34
-12.82
2.41
17.03
27.27
32.45
33.70
31.92
26.98
18.28
5.98
-7.98
-20.05
-26.50
-25.17
-14.98
1.35
19.09
33.28
40.50
39.76
32.32
20.75
7.73
-4.95
-16.90
-28.42
-39.87
-51.11
-61.44
-69.99
-76.22
-80.26
-82.88
-85.16
-87.68
-90.09
-91.13
-89.15
-82.72
-71.26
-55.21
-36.02
-15.75
3.55
20.32
33.70
43.50
50.01
53.74
55.24
55.06
53.64
51.43
48.83
46.27
44.15
42.85
42.48
42.73
42.86
41.82
38.52
32.21
22.88
11.50
-0.22
-10.45
-17.95
-22.50
-24.87
-26.39
-28.50
-31.99
-36.51
-40.76
-43.16
-42.50
-38.37
-31.14
-21.79
-11.88
-2.72
5.44
13.23
21.25
29.36
36.69
41.86
43.81
41.55
35.43
28.08
23.29
23.90
30.31
40.95
52.96
63.40
68.19
63.74
48.84
25.40
-2.28
-27.86
-43.79
-44.18
-27.95
-2.67
18.73
24.57
9.25
-25.94
-74.24
-126.30
-174.44
-201.99
-198.11
-168.81
-131.41
-98.37
-72.45
-51.51
-33.39
-18.52
-8.68
-6.70
-12.88
-22.40
-27.20
-21.05
-3.03
25.58
59.37
91.14
113.04
119.93
111.68
92.35
67.32
42.58
23.88
15.27
18.85
34.25
59.91
92.74
128.07
152.92
152.32
118.25
55.01
-23.11
-98.02
-153.01
-177.19
-168.37
-133.64
-85.19
-36.07
2.81
24.74
27.74
13.85
-12.25
-44.49
-78.47
-108.45
-128.51
-134.01
-123.30
-98.11
-63.28
-25.81
7.00
28.56
35.63
28.57
10.69
-13.07
-37.43
-57.86
-72.98
-80.79
-81.07
-75.12
-65.38
-54.69
-45.29
-38.16
-33.08
-29.17
-25.33
-21.11
-16.09
-9.68
-1.09
10.26
24.20
39.53
54.06
65.53
71.95
72.66
68.52
61.47
53.72
46.96
41.94
38.42
35.81
33.17
29.75
25.02
18.70
10.74
1.32
-9.11
-19.93
-30.48
-40.45
-49.97
-59.50
-69.49
-80.00
-90.34
-99.10
-104.42
-104.54
-98.34
-85.71
-67.43
-44.96
-20.01
5.73
30.75
53.65
73.18
88.33
98.53
103.88
105.17
103.69
100.85
97.72
94.83
92.18
89.44
86.20
82.17
77.28
71.65
65.51
59.08
52.48
45.79
39.01
32.15
25.22
18.20
10.97
3.33
-4.96
-13.99
-23.47
-32.63
-40.23
-44.93
-45.65
-41.87
-33.80
-22.20
-8.20
6.99
22.19
36.37
48.66
58.44
65.38
69.48
71.08
70.72
69.00
66.45
63.48
60.30
56.96
53.44
49.61
45.32
40.41
34.79
28.45
21.49
14.16
6.74
-0.44
-7.12
-13.20
-18.73
-23.97
-29.28
-35.07
-41.63
-48.93
-56.52
-63.44
-68.43
-70.15
-67.63
-60.53
-49.24
-34.69
-18.11
-0.76
16.23
31.88
45.36
55.98
63.34
67.37
68.46
67.34
64.90
61.98
59.12
56.51
54.03
51.41
48.36
44.73
40.47
35.65
30.37
24.72
18.78
12.70
6.69
1.03
-4.02
-8.39
-12.26
-16.02
-20.23
-25.37
-31.70
-39.04
-46.80
-53.94
-59.21
-61.35
-59.39
-52.94
-42.25
-28.27
-12.37
3.92
19.20
32.43
42.98
50.60
55.33
57.49
57.56
56.17
53.94
51.38
48.81
46.30
43.74
40.89
37.61
33.88
29.83
25.71
21.76
18.09
14.64
11.19
7.49
3.39
-1.08
-5.70
-10.10
-14.01
-17.32
-20.16
-22.84
-25.75
-29.11
-32.88
-36.57
-39.30
-39.94
-37.43
-31.11
-21.03
-8.00
6.64
21.38
34.99
46.68
56.17
63.43
68.54
71.56
72.63
72.16
70.89
69.86
70.22
72.89
78.33
86.29
95.72
104.85
111.54
113.72
109.95
99.85
84.33
65.45
46.02
28.92
16.45
9.64
7.92
9.27
10.79
9.69
4.17
-6.08
-19.96
-35.53
-50.84
-64.51
-75.93
-85.16
-92.49
-98.25
-102.94
-107.23
-111.99
-117.95
-125.39
-133.81
-141.84
-147.55
-149.06
-145.41
-136.83
-124.58
-110.37
-95.85
-82.24
-70.16
-59.73
-50.71
-43.06
-36.85
-32.15
-28.66
-25.89
-23.19
-19.87
-15.26
-8.91
-1.24
6.54
12.83
16.30
15.82
10.57
0.03
-15.85
-33.59
-47.97
-53.70
-48.03
-31.40
-7.68
16.66
34.37
40.16
33.06
16.65
-2.70
-18.61
-27.24
-29.13
-28.02
-27.99
-31.04
-36.00
-39.75
-39.65
-35.69
-27.95
-17.39
-4.51
10.92
28.99
48.14
65.05
75.93
77.55
72.15
64.58
58.92
55.39
50.17
38.02
17.35
-9.11
-34.48
-51.12
-55.35
-48.62
-35.66
-19.67
-4.60
7.62
15.16
15.46
6.14
-13.00
-37.73
-59.93
-71.29
-66.44
-45.11
-12.56
23.56
56.76
83.04
100.41
105.65
98.47
79.44
51.29
19.00
-11.36
-34.91
-49.84
-57.67
-62.16
-66.37
-73.32
-82.17
-90.10
-92.87
-86.43
-68.62
-40.29
-5.72
30.09
62.03
88.07
109.41
128.69
147.20
162.70
169.88
157.93
125.76
78.68
26.90
-18.78
-50.93
-67.21
-71.00
-65.59
-53.72
-36.55
-15.84
6.06
26.10
40.62
47.58
47.87
45.38
44.43
48.54
58.01
70.46
80.89
82.15
69.35
42.93
8.91
-24.69
-50.79
-65.66
-68.74
-61.64
-49.52
-36.87
-24.88
-11.75
3.99
21.75
38.54
50.44
53.65
41.68
10.37
-39.12
-100.96
-169.28
-240.82
-314.40
-388.24
-433.40
-425.27
-361.51
-262.84
-154.71
-56.14
21.64
74.62
105.60
121.82
127.43
124.72
115.92
104.36
93.08
84.48
80.57
82.87
91.22
100.03
102.19
92.92
72.61
45.39
17.57
-5.57
-20.10
-25.05
-24.36
-23.39
-25.39
-29.71
-33.63
-34.48
-30.91
-23.07
-12.32
-1.31
7.78
14.26
19.18
23.74
28.44
33.14
37.57
41.51
44.66
47.30
47.52
45.50
41.81
37.07
31.73
26.18
20.79
16.06
12.61
11.00
11.80
14.59
18.02
20.23
19.54
15.14
7.43
-2.16
-11.72
-19.27
-23.80
-25.41
-25.28
-25.23
-27.21
-32.76
-42.50
-55.79
-70.61
-84.19
-93.69
-96.96
-93.02
-82.12
-65.47
-44.69
-21.32
3.48
28.94
54.53
79.85
104.45
127.76
149.09
167.74
182.90
193.59
198.81
198.18
192.57
184.41
176.87
172.36
170.70
168.65
160.68
141.40
108.00
61.51
5.88
-54.32
-115.96
-177.67
-238.25
-294.56
-340.68
-369.20
-374.14
-353.41
-309.10
-245.84
-168.87
-82.98
6.46
91.97
163.59
210.73
225.51
205.76
156.05
86.41
9.58
-61.93
-117.98
-152.64
-165.40
-161.04
-148.09
-135.29
-127.73
-124.40
-119.25
-105.26
-79.19
-44.24
-9.00
16.41
25.04
16.03
-5.31
-29.85
-48.11
-53.20
-42.71
-18.38
15.27
53.21
91.45
127.45
159.34
184.94
201.50
206.60
199.66
182.96
161.86
142.96
131.63
130.00
136.55
147.38
158.18
166.08
170.07
170.80
169.75
168.01
165.36
160.28
150.95
136.29
116.66
93.17
67.93
43.55
22.17
4.33
-10.96
-25.35
-40.16
-55.81
-73.05
-91.43
-108.59
-121.42
-128.21
-129.46
-127.42
-124.96
-124.53
-129.43
-140.47
-154.11
-164.15
-165.86
-157.76
-141.57
-121.17
-101.49
-90.12
-92.75
-109.54
-135.86
-166.25
-196.20
-221.92
-240.15
-230.67
-184.52
-114.65
-44.34
12.97
56.75
92.21
123.70
151.20
169.99
170.28
147.09
102.38
47.22
-3.69
-37.29
-45.54
-27.20
12.49
64.47
110.82
137.29
139.64
122.14
93.37
62.18
34.84
14.13
-1.46
-14.85
-26.19
-33.66
-36.24
-35.02
-32.59
-31.76
-34.09
-40.42
-51.69
-65.87
-80.37
-93.06
-102.15
-105.40
-100.54
-85.84
-61.42
-29.90
4.85
37.97
64.78
81.34
85.50
76.81
57.70
33.60
12.00
1.04
6.75
31.89
73.78
125.01
174.13
209.91
224.74
216.40
187.66
144.49
94.75
46.07
4.01
-29.94
-56.48
-77.16
-92.75
-103.40
-109.67
-111.21
-106.57
-87.99
-53.80
-11.38
26.72
51.52
60.30
54.63
40.92
27.84
22.08
23.53
26.33
22.54
7.51
-18.43
-52.26
-88.33
-121.11
-148.38
-173.45
-195.39
-213.31
-222.51
-206.58
-160.24
-93.70
-27.32
22.56
51.87
70.85
90.25
118.01
155.87
193.76
218.87
221.65
200.47
161.58
115.69
72.07
36.36
9.11
-14.02
-36.47
-58.19
-75.92
-86.29
-88.47
-85.74
-82.60
-82.72
-88.09
-96.82
-104.00
-104.35
-94.84
-76.10
-52.22
-28.11
-7.73
6.55
14.92
19.31
22.08
24.64
26.93
27.73
26.01
21.63
15.28
8.41
2.47
-1.63
-3.83
-4.76
-5.33
-6.06
-7.04
-8.06
-8.94
-9.72
-10.72
-12.34
-14.85
-18.17
-21.82
-25.12
-27.48
-28.64
-28.83
-28.69
-29.01
-30.49
-33.36
-37.17
-40.85
-43.07
-42.53
-38.40
-30.46
-19.13
-5.36
9.87
26.01
42.82
60.12
77.40
93.62
107.36
117.18
121.94
121.67
117.87
112.79
108.50
106.00
105.06
104.40
102.42
97.53
89.47
79.78
70.64
63.81
59.69
57.29
54.82
50.41
42.03
28.42
9.57
-13.82
-40.11
-66.63
-89.62
-105.07
-106.91
-94.84
-76.31
-60.21
-50.87
-46.60
-42.43
-33.78
-19.34
-1.76
13.16
19.92
17.92
8.13
-6.59
-22.62
-36.48
-45.28
-47.24
-41.91
-30.75
-16.85
-4.30
3.28
3.83
-2.62
-14.15
-27.83
-41.12
-52.38
-60.69
-65.65
-67.38
-66.70
-64.79
-62.82
-61.69
-61.74
-62.47
-61.72
-56.89
-46.01
-29.06
-8.62
10.80
24.47
29.70
24.51
12.20
-0.26
-5.14
2.54
22.88
51.37
81.20
106.27
123.23
132.15
134.75
132.58
126.15
115.28
100.29
82.92
66.21
53.65
48.04
50.14
58.26
69.00
78.53
83.99
84.26
79.99
72.95
65.22
58.20
52.25
46.98
41.91
36.90
32.34
28.76
26.31
24.62
22.67
19.22
13.38
5.04
-5.07
-15.76
-25.93
-35.15
-43.76
-52.69
-62.93
-74.94
-88.32
-101.93
-114.26
-123.91
-129.97
-132.11
-130.41
-125.23
-117.09
-106.68
-94.87
-82.72
-71.28
-61.41
-53.63
-48.02
-44.23
-41.52
-38.86
-35.15
-29.47
-21.52
-11.83
-1.80
6.55
11.21
10.69
4.46
-6.84
-21.64
-37.72
-52.85
-65.20
-73.80
-78.81
-81.27
-82.73
-84.71
-88.25
-93.92
-102.16
-113.68
-129.52
-150.27
-174.90
-199.91
-219.46
-226.86
-217.10
-188.71
-144.35
-89.58
-30.83
26.24
77.35
119.23
149.17
165.26
167.31
157.60
140.76
122.40
107.12
97.01
91.53
88.58
85.98
82.57
78.39
74.09
70.28
67.15
64.43
61.73
58.60
54.84
50.50
45.73
40.77
35.76
30.74
25.64
20.41
15.09
9.91
5.17
1.20
-1.83
-3.83
-4.71
-4.28
-2.18
2.00
8.52
17.27
27.60
38.51
48.84
57.58
64.11
68.26
70.24
70.57
69.87
68.74
67.60
66.62
65.75
64.70
63.21
61.08
58.31
55.06
51.54
47.92
44.29
40.64
36.98
33.37
29.94
26.79
23.95
21.26
18.41
15.03
10.82
5.71
-0.13
-6.35
-12.60
-18.58
-24.11
-29.03
-33.04
-35.61
-36.11
-33.94
-28.73
-20.45
-9.45
3.41
16.85
29.17
38.64
43.83
44.04
39.60
31.73
22.31
13.33
6.47
2.71
2.10
3.91
6.79
9.27
10.27
9.44
7.26
4.78
3.07
2.73
3.74
5.58
7.42
8.43
7.87
5.16
0.00
-7.49
-16.76
-26.88
-36.78
-45.60
-52.77
-58.05
-61.42
-62.91
-62.63
-60.77
-57.71
-53.90
-49.83
-45.81
-41.99
-38.39
-35.03
-32.04
-29.58
-27.76
-26.54
-25.70
-24.97
-24.12
-23.06
-21.85
-20.66
-19.75
-19.39
-19.84
-21.29
-23.79
-27.19
-31.15
-35.14
-38.63
-41.18
-42.58
-42.88
-42.37
-41.54
-40.88
-40.77
-41.32
-42.21
-42.74
-41.97
-39.00
-33.22
-24.56
-13.50
-0.92
12.13
24.63
35.77
44.97
51.90
56.44
58.76
59.22
58.31
56.55
54.39
52.11
49.84
47.62
45.40
43.09
40.54
37.60
34.16
30.26
26.11
21.99
18.12
14.59
11.26
7.90
4.23
0.11
-4.55
-9.73
-15.33
-21.15
-26.79
-31.69
-35.14
-36.50
-35.34
-31.56
-25.39
-17.24
-7.64
2.81
13.43
23.42
31.90
38.06
41.37
41.68
39.24
34.69
28.79
22.33
15.93
10.04
4.92
0.56
-3.32
-7.11
-11.27
-16.15
-21.91
-28.47
-35.49
-42.43
-48.75
-54.11
-58.48
-62.20
-65.92
-70.35
-75.94
-82.59
-89.44
-95.23
-98.67
-98.78
-95.10
-87.74
-77.21
-64.06
-48.43
-29.96
-8.25
16.57
43.65
71.28
97.21
118.85
134.08
142.21
144.30
142.50
139.30
137.03
137.38
141.02
147.07
153.51
158.67
161.79
162.47
160.15
154.02
143.10
126.36
102.65
71.27
33.31
-8.38
-50.44
-89.84
-123.16
-146.38
-152.53
-136.23
-101.85
-62.76
-32.48
-18.16
-19.95
-32.22
-47.00
-57.59
-61.57
-60.47
-56.94
-52.64
-48.10
-44.35
-42.57
-44.58
-52.13
-65.84
-83.60
-99.75
-106.94
-97.18
-70.58
-34.29
1.26
27.20
39.43
39.32
32.05
23.42
16.98
12.79
9.63
6.65
4.03
2.68
3.44
6.66
11.88
17.51
20.36
17.52
8.09
-5.58
-17.94
-22.31
-13.62
8.65
39.55
69.91
90.22
94.38
81.59
55.98
24.04
-7.85
-35.15
-55.37
-67.51
-71.15
-66.24
-53.88
-35.55
-14.51
5.12
19.58
26.69
26.63
21.91
16.10
12.27
11.92
14.41
17.60
18.97
16.74
10.52
1.43
-8.50
-17.13
-22.88
-25.30
-24.86
-22.52
-19.22
-15.50
-11.32
-6.24
0.31
8.63
18.34
28.47
37.54
44.00
46.60
44.78
38.85
29.99
19.95
10.61
3.60
0.05
0.35
4.13
10.41
17.83
24.91
30.47
33.64
33.88
31.35
26.64
20.44
13.22
5.17
-3.69
-13.19
-22.95
-32.36
-40.77
-47.77
-53.37
-57.87
-61.80
-65.64
-69.73
-74.09
-78.40
-81.87
-83.43
-81.93
-76.45
-66.63
-52.77
-35.86
-17.41
0.85
17.30
30.69
40.28
45.96
48.16
47.68
45.46
42.35
38.99
35.82
33.13
31.04
29.60
28.66
27.96
27.10
25.74
23.62
20.70
17.09
12.98
8.60
4.17
-0.12
-4.04
-7.44
-10.21
-12.42
-14.29
-16.17
-18.37
-21.06
-24.10
-27.02
-29.09
-29.48
-27.54
-23.05
-16.25
-7.89
1.04
9.50
16.68
22.06
25.53
27.34
27.99
28.14
28.38
29.09
30.28
31.57
32.40
32.25
30.91
28.55
25.61
22.57
19.62
16.61
13.17
8.94
3.88
-1.71
-7.27
-12.25
-16.35
-19.67
-22.62
-25.87
-30.10
-35.78
-43.03
-51.56
-60.60
-69.08
-75.79
-79.80
-80.75
-78.91
-75.06
-70.14
-64.89
-59.60
-53.93
-47.04
-37.86
-25.61
-10.23
7.49
25.95
43.11
57.15
67.01
72.55
74.45
73.33
69.71
64.08
57.05
49.28
41.46
34.19
27.80
22.33
17.13
11.73
6.57
2.91
1.92
3.93
8.14
12.69
15.37
13.60
6.00
-6.34
-20.01
-30.96
-36.09
-34.30
-27.01
-17.20
-9.34
-7.17
-12.02
-22.77
-37.42
-54.04
-70.52
-84.13
-84.34
-63.59
-26.08
13.79
41.50
48.49
33.92
4.22
-29.71
-57.27
-72.83
-74.69
-63.64
-41.09
-8.15
34.14
83.95
132.05
164.11
167.95
140.15
88.07
26.12
-30.75
-72.53
-96.19
-106.53
-107.16
-99.69
-84.63
-62.47
-34.69
-4.14
25.85
52.72
75.88
93.73
105.96
112.42
112.78
106.78
94.68
77.68
57.83
37.53
19.39
5.70
-2.59
-5.78
-5.02
-1.92
1.88
4.86
5.79
4.16
0.34
-4.93
-10.76
-16.27
-20.83
-24.23
-26.70
-28.88
-31.34
-34.33
-37.80
-41.36
-44.44
-46.36
-46.46
-44.26
-39.50
-32.24
-22.77
-11.68
0.18
11.89
22.60
31.63
38.54
43.20
45.76
46.64
46.29
45.07
43.10
40.27
36.37
31.20
24.79
17.43
9.71
2.35
-3.92
-8.55
-11.32
-12.43
-12.43
-12.08
-12.10
-12.99
-14.88
-17.58
-20.80
-24.25
-27.73
-31.21
-34.61
-37.76
-40.35
-41.92
-42.00
-40.23
-36.43
-30.62
-23.00
-13.91
-3.81
6.67
16.73
25.51
32.23
36.46
38.18
37.85
36.16
33.79
31.19
28.51
25.73
22.77
19.65
16.48
13.41
10.52
7.78
5.03
2.15
-0.95
-4.21
-7.48
-10.62
-13.56
-16.34
-19.11
-22.06
-25.31
-28.90
-32.70
-36.52
-40.06
-42.93
-44.69
-44.87
-43.01
-38.79
-32.15
-23.37
-13.07
-2.11
8.60
18.19
26.03
31.78
35.36
36.96
36.95
35.76
33.85
31.65
29.46
27.46
25.63
23.83
21.84
19.53
16.85
13.90
10.82
7.72
4.63
1.48
-1.82
-5.29
-8.89
-12.47
-15.91
-19.14
-22.19
-25.18
-28.27
-31.58
-35.12
-38.65
-41.69
-43.54
-43.46
-40.89
-35.62
-27.85
-18.14
-7.30
3.83
14.47
23.96
31.75
37.48
40.92
42.16
41.53
39.57
36.94
34.17
31.58
29.21
26.95
24.57
21.98
19.24
16.48
13.85
11.38
8.97
6.42
3.57
0.33
-3.23
-6.91
-10.49
-13.80
-16.77
-19.47
-22.04
-24.67
-27.46
-30.40
-33.30
-35.82
-37.52
-37.98
-36.87
-34.02
-29.40
-23.07
-15.18
-6.03
3.87
13.76
22.70
29.82
34.53
36.75
36.85
35.49
33.32
30.87
28.39
26.08
24.03
22.34
21.01
19.89
18.67
17.03
14.76
11.91
8.70
5.43
2.35
-0.47
-3.10
-5.62
-8.12
-10.56
-12.93
-15.23
-17.57
-20.10
-23.00
-26.34
-30.11
-34.13
-38.07
-41.38
-43.42
-43.50
-41.13
-36.15
-28.87
-19.90
-10.06
-0.09
9.43
18.12
25.64
31.66
35.84
38.01
38.25
36.98
34.80
32.35
30.07
28.14
26.51
25.00
23.39
21.55
19.43
17.05
14.46
11.72
8.94
6.20
3.58
1.14
-1.11
-3.19
-5.17
-7.11
-9.08
-11.18
-13.51
-16.18
-19.22
-22.61
-26.19
-29.66
-32.62
-34.61
-35.13
-33.79
-30.39
-24.95
-17.79
-9.45
-0.62
8.00
15.73
22.04
26.56
29.17
30.01
29.43
27.91
25.92
23.81
21.76
19.83
18.03
16.32
14.66
13.00
11.29
9.50
7.65
5.79
3.97
2.20
0.41
-1.49
-3.59
-5.89
-8.33
-10.75
-13.00
-14.98
-16.73
-18.40
-20.21
-22.32
-24.71
-27.12
-29.06
-29.95
-29.27
-26.69
-22.20
-16.08
-8.87
-1.25
6.06
12.41
17.30
20.45
21.85
21.66
20.25
18.06
15.54
13.15
11.17
9.76
8.88
8.36
8.03
7.68
7.21
6.57
5.76
4.77
3.63
2.37
1.00
-0.46
-1.98
-3.56
-5.15
-6.71
-8.21
-9.64
-11.08
-12.66
-14.50
-16.71
-19.21
-21.80
-24.13
-25.74
-26.09
-24.72
-21.32
-15.92
-8.97
-1.24
6.31
12.81
17.64
20.57
21.68
21.27
19.75
17.55
15.07
12.64
10.54
8.90
7.74
6.92
6.26
5.61
4.90
4.15
3.41
2.69
1.94
1.02
-0.21
-1.87
-3.94
-6.28
-8.66
-10.87
-12.80
-14.48
-16.09
-17.79
-19.70
-21.81
-24.02
-26.18
-28.14
-29.71
-30.60
-30.40
-28.71
-25.29
-20.22
-13.96
-7.19
-0.54
5.58
11.09
16.03
20.29
23.44
24.76
23.49
19.24
12.26
3.43
-5.96
-14.59
-21.45
-26.01
-28.22
-28.27
-26.49
-23.32
-19.41
-15.62
-12.90
-12.03
-13.24
-16.12
-19.71
-23.01
-25.33
-26.60
-27.23
-27.85
-28.96
-30.69
-32.85
-35.05
-36.89
-38.05
-38.27
-37.27
-34.76
-30.49
-24.35
-16.49
-7.35
2.43
12.08
20.87
28.23
33.80
37.50
39.46
40.04
39.71
38.96
38.15
37.40
36.60
35.47
33.75
31.40
28.57
25.53
22.54
19.69
16.94
14.11
11.02
7.58
3.81
-0.18
-4.27
-8.35
-12.38
-16.42
-20.59
-25.04
-29.83
-34.92
-40.08
-44.92
-48.85
-51.25
-51.51
-49.22
-44.24
-36.78
-27.37
-16.74
-5.64
5.25
15.39
24.34
31.73
37.23
40.66
42.03
41.63
40.04
37.96
36.03
34.68
33.98
33.72
33.52
33.02
32.03
30.55
28.78
26.91
25.06
23.19
21.13
18.73
15.92
12.82
9.60
6.44
3.37
0.28
-3.02
-6.71
-10.92
-15.71
-21.10
-27.03
-33.19
-39.01
-43.57
-45.77
-44.69
-39.86
-31.51
-20.57
-8.36
3.72
14.57
23.57
30.49
35.39
38.41
39.73
39.57
38.30
36.40
34.42
32.77
31.57
30.64
29.62
28.14
26.01
23.29
20.25
17.20
14.35
11.74
9.26
6.73
4.03
1.13
-1.84
-4.71
-7.35
-9.76
-12.07
-14.46
-17.12
-20.12
-23.42
-26.94
-30.51
-33.92
-36.85
-38.82
-39.21
-37.43
-33.08
-26.13
-17.01
-6.56
4.13
13.95
22.02
27.87
31.42
32.97
33.00
32.07
30.60
28.95
27.34
25.91
24.73
23.80
22.99
22.09
20.88
19.22
17.17
14.92
12.68
10.63
8.75
6.90
4.86
2.48
-0.29
-3.37
-6.60
-9.79
-12.79
-15.50
-18.01
-20.51
-23.27
-26.51
-30.24
-34.19
-37.80
-40.33
-41.07
-39.48
-35.32
-28.71
-20.09
-10.19
0.10
9.81
18.11
24.40
28.46
30.46
30.81
30.07
28.74
27.17
25.55
23.92
22.29
20.64
18.97
17.26
15.44
13.48
11.37
9.17
7.01
4.92
2.87
0.72
-1.69
-4.44
-7.45
-10.56
-13.57
-16.36
-18.95
-21.47
-24.11
-27.07
-30.49
-34.39
-38.54
-42.50
-45.58
-47.00
-46.09
-42.49
-36.23
-27.76
-17.78
-7.14
3.37
13.10
21.48
28.13
32.81
35.50
36.46
36.13
35.03
33.54
31.78
29.67
27.12
24.15
21.05
18.24
16.10
14.67
13.68
12.56
10.77
7.95
4.09
-0.55
-5.53
-10.43
-14.94
-18.94
-22.42
-25.52
-28.48
-31.58
-35.15
-39.40
-44.33
-49.59
-54.43
-57.84
-58.84
-56.72
-51.31
-42.96
-32.46
-20.71
-8.56
3.30
14.33
24.12
32.29
38.57
42.86
45.24
46.00
45.53
44.23
42.40
40.26
37.97
35.63
33.33
31.11
28.93
26.69
24.24
21.42
18.15
14.43
10.31
5.90
1.38
-3.06
-7.28
-11.20
-14.93
-18.64
-22.59
-26.95
-31.79
-37.01
-42.41
-47.64
-52.21
-55.49
-56.78
-55.49
-51.28
-44.18
-34.61
-23.21
-10.76
1.98
14.27
25.38
34.69
41.74
46.33
48.57
48.82
47.59
45.46
42.94
40.46
38.28
36.47
34.88
33.23
31.24
28.74
25.75
22.45
19.00
15.53
12.03
8.44
4.70
0.81
-3.16
-7.12
-11.03
-14.87
-18.72
-22.66
-26.82
-31.26
-36.05
-41.17
-46.50
-51.75
-56.40
-59.77
-61.12
-59.77
-55.33
-47.79
-37.55
-25.31
-11.99
1.50
14.31
25.71
35.15
42.27
46.94
49.30
49.72
48.72
46.88
44.67
42.42
40.27
38.25
36.30
34.38
32.39
30.25
27.88
25.20
22.22
19.00
15.64
12.18
8.60
4.83
0.81
-3.46
-7.81
-12.07
-16.13
-20.03
-23.93
-27.99
-32.31
-36.86
-41.55
-46.29
-51.00
-55.53
-59.53
-62.39
-63.33
-61.69
-57.13
-49.78
-40.17
-29.02
-17.06
-4.90
6.87
17.71
27.08
34.51
39.79
42.96
44.32
44.33
43.40
41.87
39.98
37.90
35.77
33.72
31.79
30.00
28.28
26.57
24.83
23.04
21.18
19.21
17.04
14.55
11.63
8.25
4.35
0.04
-4.45
-8.78
-12.72
-16.19
-19.24
-22.07
-24.93
-28.17
-32.06
-36.68
-41.80
-46.92
-51.30
-54.02
-54.12
-50.90
-44.38
-35.09
-23.82
-11.38
1.42
13.93
25.71
36.47
45.99
53.32
57.64
58.97
58.17
56.42
54.81
54.22
55.24
58.03
60.84
61.83
60.38
57.26
53.62
50.51
48.92
49.69
53.24
57.01
58.13
55.43
49.65
41.81
32.31
21.05
7.70
-8.05
-29.15
-57.65
-92.49
-130.23
-167.97
-204.56
-239.93
-273.69
-286.16
-263.64
-209.90
-142.41
-76.77
-20.87
22.82
54.93
78.08
95.73
108.07
114.26
114.32
109.19
99.36
85.15
67.84
50.28
36.02
25.79
18.78
14.19
11.53
9.79
7.64
4.17
-0.55
-5.68
-11.15
-16.69
-21.19
-23.22
-22.32
-19.26
-15.23
-11.33
-8.68
-8.32
-11.44
-18.39
-28.24
-39.06
-48.37
-53.75
-53.03
-46.88
-37.61
-28.45
-22.15
-19.84
-20.44
-20.93
-17.35
-6.59
11.90
35.42
58.50
75.18
81.62
77.74
67.00
54.57
44.83
39.60
38.05
37.80
36.45
32.33
24.75
13.61
-0.13
-14.43
-25.88
-30.55
-25.51
-10.30
12.06
35.71
53.93
61.79
57.49
43.73
25.08
5.60
-12.35
-28.40
-42.30
-52.92
-58.12
-55.96
-46.11
-30.53
-13.80
-0.40
7.03
8.55
6.12
2.32
-1.01
-3.11
-3.84
-3.58
-2.80
-2.23
-2.99
-6.12
-11.81
-18.96
-25.49
-29.32
-29.43
-26.12
-20.73
-14.73
-9.22
-4.79
-1.87
-1.23
-3.54
-8.70
-15.10
-20.16
-21.65
-18.87
-13.44
-7.97
-4.23
-2.14
-0.08
3.83
10.19
18.06
25.81
32.53
38.67
45.45
53.45
61.36
66.14
64.34
53.83
35.15
11.33
-13.00
-33.06
-45.40
-48.74
-44.04
-34.15
-22.63
-12.52
-5.47
-1.54
0.20
0.91
1.21
1.09
0.13
-1.99
-5.03
-8.26
-10.59
-11.02
-9.01
-4.86
0.37
4.81
6.45
4.33
-0.65
-5.73
-7.71
-4.54
3.30
13.30
22.64
30.12
37.23
46.59
59.28
72.73
81.35
79.74
66.36
45.09
23.02
6.60
-2.33
-7.11
-13.49
-25.75
-44.32
-66.18
-86.85
-102.46
-110.30
-108.80
-96.92
-74.79
-44.91
-12.68
14.58
30.44
32.01
21.26
3.47
-15.13
-29.60
-37.72
-39.18
-34.69
-25.20
-12.32
1.38
12.43
17.73
16.24
10.12
4.68
5.66
15.70
31.76
45.51
46.69
28.51
-8.29
-54.91
-97.75
-124.88
-130.98
-118.61
-95.47
-69.62
-45.57
-23.58
-3.31
15.92
33.28
46.11
51.78
49.74
42.66
35.66
34.03
40.68
54.99
73.11
90.32
103.49
112.01
117.33
121.42
125.00
126.73
123.63
112.44
92.24
66.13
40.21
21.13
13.39
17.09
27.68
37.64
39.47
29.21
8.30
-18.13
-44.16
-65.11
-78.52
-81.94
-72.56
-52.52
-29.10
-9.60
1.26
1.59
-7.53
-22.90
-40.70
-58.61
-76.51
-96.14
-115.65
-129.95
-132.91
-119.72
-89.38
-44.60
9.14
65.64
117.04
154.05
171.18
167.53
146.28
112.68
73.87
37.20
7.91
-12.36
-24.66
-30.79
-32.56
-29.89
-23.92
-16.06
-7.85
-0.76
4.03
6.37
7.45
8.60
10.30
9.63
2.82
-13.08
-39.53
-74.71
-114.89
-153.94
-184.52
-189.83
-161.82
-107.78
-45.71
8.82
49.22
76.38
94.15
104.48
105.64
92.11
61.14
15.76
-34.88
-80.61
-112.81
-125.61
-116.67
-87.05
-42.09
11.34
65.74
114.71
153.58
180.41
196.57
205.69
211.80
210.77
200.19
178.49
146.33
106.43
62.68
18.96
-22.47
-61.86
-101.77
-144.28
-188.34
-228.58
-258.53
-274.08
-274.66
-262.80
-242.46
-217.74
-192.25
-168.42
-146.95
-127.98
-110.81
-92.38
-67.25
-29.99
25.29
90.16
144.77
173.46
174.22
155.51
128.47
101.29
77.09
55.35
34.93
14.76
-2.01
-11.93
-13.95
-10.14
-4.04
1.01
3.07
1.33
-3.32
-7.88
-9.80
-8.16
-3.53
2.95
9.89
15.61
17.76
14.80
7.38
-2.34
-11.46
-17.69
-19.74
-17.49
-11.79
-3.91
5.82
18.88
37.25
61.97
90.88
119.97
145.17
163.89
175.39
181.10
184.48
189.56
199.21
211.66
223.38
231.90
236.82
238.31
235.66
227.12
210.28
183.43
143.03
89.16
27.78
-31.70
-82.18
-121.71
-152.03
-175.62
-193.61
-210.80
-231.56
-257.76
-289.80
-329.54
-379.62
-440.05
-506.31
-538.19
-506.77
-416.62
-300.04
-187.44
-93.86
-22.10
31.59
72.96
106.95
131.10
141.42
137.83
125.64
111.92
102.60
101.13
107.28
117.20
121.62
113.27
92.59
67.53
47.51
37.34
36.83
41.83
47.38
48.43
43.15
33.28
21.82
9.31
-5.48
-22.04
-36.01
-41.05
-32.76
-12.05
14.93
39.42
53.82
55.12
46.16
33.42
23.21
18.78
19.35
22.33
25.80
29.16
32.75
36.54
38.97
34.80
21.95
0.87
-25.06
-50.28
-69.50
-79.20
-78.28
-68.06
-51.79
-33.23
-16.45
-4.46
2.43
5.91
8.72
13.57
21.89
33.15
45.76
57.50
64.73
67.34
66.84
65.22
63.77
62.37
59.57
53.66
43.42
29.18
13.35
-0.92
-10.91
-15.48
-15.56
-13.78
-12.83
-14.31
-17.93
-21.69
-23.62
-22.95
-20.60
-18.86
-19.69
-23.74
-30.06
-36.37
-39.95
-39.15
-34.04
-26.26
-17.74
-11.01
-7.28
-6.42
-6.75
-6.65
-5.50
-3.82
-2.89
-4.12
-8.28
-15.13
-23.23
-30.33
-34.05
-33.18
-27.88
-19.92
-12.29
-8.16
-10.39
-19.44
-34.13
-50.94
-65.19
-72.49
-70.08
-58.33
-40.56
-22.47
-8.86
-1.13
3.69
9.75
20.47
37.66
60.10
84.35
104.73
115.87
114.27
98.29
68.84
30.01
-10.45
-45.30
-63.69
-63.98
-53.76
-44.17
-43.52
-52.21
-63.56
-67.67
-57.63
-31.85
5.02
46.24
86.59
122.14
151.06
165.87
163.21
143.66
112.02
74.63
33.82
-1.47
-24.19
-33.02
-30.62
-19.68
-3.81
11.70
19.77
16.85
3.20
-17.39
-38.45
-53.10
-55.64
-44.48
-20.32
9.66
36.70
56.45
68.90
76.25
79.73
78.34
68.51
47.10
14.23
-24.58
-59.86
-82.73
-88.11
-75.83
-49.29
-14.86
19.80
47.08
61.42
60.59
46.35
22.25
-6.48
-33.77
-55.15
-68.71
-74.90
-75.16
-70.87
-63.08
-50.94
-37.17
-24.05
-13.44
-6.33
-2.59
-0.97
0.27
2.53
6.15
10.25
13.75
15.52
14.47
11.05
6.28
1.39
-2.46
-4.68
-5.57
-5.75
-6.05
-7.18
-9.68
-13.71
-19.15
-25.12
-30.12
-32.72
-31.79
-27.05
-19.10
-9.60
-0.54
5.84
8.62
8.09
4.81
-1.12
-10.40
-21.04
-31.60
-40.19
-45.88
-47.34
-43.65
-35.65
-26.06
-18.28
-14.78
-16.49
-22.34
-31.57
-42.08
-51.63
-58.98
-63.70
-64.91
-60.77
-49.94
-26.84
3.53
30.39
47.73
59.26
72.87
93.42
118.86
141.06
153.82
150.69
131.98
103.80
74.10
48.42
28.31
12.01
-3.73
-20.30
-38.60
-54.37
-62.85
-61.73
-52.57
-39.42
-26.71
-17.74
-13.74
-14.80
-18.90
-23.48
-26.61
-27.86
-27.96
-28.21
-29.80
-33.13
-38.22
-44.05
-49.11
-51.76
-50.83
-45.82
-37.13
-26.09
-14.69
-4.11
4.55
10.56
13.84
14.86
14.60
13.78
12.94
13.10
15.49
20.58
27.90
36.42
44.84
51.64
54.14
49.33
35.66
13.59
-14.49
-44.14
-69.12
-83.11
-81.53
-61.44
-23.18
30.67
94.82
160.81
218.12
257.11
271.04
257.55
217.24
154.64
78.13
-3.10
-81.45
-151.08
-205.70
-239.54
-237.77
-196.38
-132.48
-72.58
-34.15
-19.89
-23.31
-33.95
-44.17
-51.57
-59.54
-70.87
-83.16
-90.22
-84.91
-62.96
-23.11
30.44
83.99
117.75
117.38
81.44
19.87
-47.51
-110.21
-159.13
-188.28
-195.53
-182.38
-151.92
-104.38
-46.55
10.97
56.49
83.09
89.62
80.22
62.14
43.16
29.23
21.87
19.62
19.31
19.49
20.07
21.88
26.02
33.39
44.80
59.10
74.11
87.13
96.91
103.15
106.01
105.78
102.53
97.33
89.80
78.82
63.76
46.12
28.88
14.99
6.32
2.92
5.53
12.59
20.85
27.62
32.87
38.62
47.13
59.48
75.04
94.79
117.48
139.45
157.01
168.72
175.39
178.87
181.12
164.82
126.56
77.86
32.77
-3.83
-34.39
-62.44
-89.32
-113.99
-134.41
-146.15
-147.88
-142.74
-135.70
-130.13
-127.04
-125.88
-125.90
-127.02
-128.68
-129.72
-130.12
-128.98
-123.08
-108.34
-82.24
-45.38
-1.44
45.57
90.76
128.46
153.02
160.53
149.50
121.69
82.32
38.89
-0.52
-30.69
-48.23
-54.76
-56.23
-61.15
-76.06
-102.68
-136.83
-169.74
-191.08
-192.52
-170.12
-124.25
-59.88
16.97
100.05
181.92
253.01
303.00
323.54
310.94
268.31
202.95
126.98
53.92
-5.88
-48.78
-77.27
-97.91
-118.70
-145.62
-183.02
-228.20
-272.18
-304.45
-319.00
-315.68
-298.84
-274.31
-229.68
-165.03
-93.31
-30.61
14.72
42.28
57.46
68.16
81.64
101.73
123.50
139.18
143.05
137.49
124.38
108.58
95.75
89.69
91.40
95.78
96.99
92.18
82.37
70.11
59.14
52.98
50.33
51.36
53.39
53.35
50.27
46.01
42.82
42.55
45.58
50.95
57.43
61.62
59.65
49.30
30.44
2.85
-33.98
-79.86
-131.86
-177.30
-197.11
-181.45
-137.78
-82.49
-30.70
8.66
33.49
46.77
53.95
58.43
60.11
58.01
53.10
48.27
46.65
49.74
56.20
62.18
62.13
51.24
28.78
-0.63
-29.66
-51.77
-63.50
-65.01
-58.92
-49.28
-40.22
-34.36
-32.20
-32.93
-35.36
-38.16
-40.12
-40.29
-38.42
-35.04
-30.75
-25.75
-19.99
-13.86
-7.40
-1.17
4.15
8.11
10.67
12.20
13.29
14.39
15.52
16.48
16.97
16.78
16.09
15.22
14.41
13.62
12.63
11.13
8.98
6.29
3.13
-0.09
-3.04
-5.63
-8.30
-11.92
-17.61
-26.28
-37.20
-49.62
-61.53
-70.27
-73.50
-70.09
-60.54
-46.81
-32.49
-19.67
-10.42
-5.94
-6.16
-9.79
-14.44
-17.28
-15.70
-7.79
6.20
23.85
41.89
57.21
67.58
72.03
70.64
64.14
53.63
40.57
26.64
13.95
4.68
0.35
1.33
6.55
13.78
20.44
24.54
25.29
23.31
20.05
16.98
15.02
14.31
14.43
14.86
15.20
15.00
13.42
9.66
2.90
-6.14
-15.10
-20.92
-21.46
-16.70
-8.86
-1.00
4.84
8.64
12.16
17.22
24.07
31.06
35.59
35.84
31.90
25.60
19.17
13.87
9.57
5.25
0.04
-6.03
-12.05
-16.76
-19.30
-19.63
-18.56
-17.19
-16.37
-16.38
-16.84
-17.17
-16.99
-16.46
-16.12
-16.67
-18.55
-21.91
-26.67
-32.80
-39.98
-48.13
-57.26
-67.33
-78.12
-89.07
-99.22
-107.38
-112.37
-113.36
-110.28
-103.72
-94.72
-84.35
-73.40
-62.25
-51.01
-39.74
-28.53
-17.53
-6.92
2.99
11.65
18.38
22.64
24.59
25.35
26.84
31.04
39.08
50.66
64.21
77.62
89.15
97.92
103.66
106.18
104.89
99.01
88.26
73.63
57.42
42.55
31.37
24.49
20.51
16.60
9.79
-1.82
-18.32
-38.10
-58.42
-76.22
-88.63
-93.43
-89.31
-76.21
-55.68
-30.86
-6.01
14.48
27.22
30.70
25.51
13.98
-0.54
-14.43
-24.40
-27.88
-23.43
-11.13
7.34
29.11
50.98
70.50
86.66
99.87
111.31
122.05
132.46
142.10
150.09
155.47
157.42
155.33
148.76
137.61
122.29
103.81
83.59
63.04
43.09
24.11
6.16
-10.49
-24.91
-35.53
-40.48
-38.37
-28.93
-13.39
5.52
24.19
38.93
46.87
46.47
37.87
22.67
3.52
-16.36
-33.83
-46.27
-52.10
-51.03
-44.22
-34.00
-23.42
-15.53
-12.65
-15.83
-24.48
-36.49
-48.70
-57.85
-61.60
-59.33
-52.31
-43.13
-34.61
-28.79
-26.37
-26.79
-28.87
-31.37
-33.41
-34.37
-33.59
-30.28
-23.61
-13.14
0.80
16.94
33.36
47.93
58.93
65.32
66.88
64.10
58.03
50.16
42.33
36.46
34.23
36.40
42.50
50.72
58.42
63.06
63.11
58.56
50.81
42.09
34.61
29.94
28.74
30.65
34.39
37.81
38.28
33.26
21.07
1.69
-23.10
-49.83
-74.00
-90.82
-96.31
-88.47
-68.47
-41.31
-14.51
4.32
9.52
-0.70
-23.24
-51.41
-77.26
-94.13
-98.35
-89.20
-68.15
-39.03
-7.72
18.74
33.32
30.71
9.13
-29.29
-77.99
-126.76
-166.13
-189.81
-195.37
-184.24
-160.62
-130.16
-100.41
-76.49
-57.57
-41.86
-26.96
-8.53
18.05
55.59
103.79
155.09
201.31
241.64
272.70
289.03
287.74
268.53
233.80
188.96
135.87
80.28
38.95
18.66
13.99
15.23
11.17
-7.27
-44.08
-105.34
-189.19
-275.65
-352.46
-417.40
-469.32
-507.60
-532.05
-492.92
-374.58
-264.15
-187.94
-129.35
-85.72
-54.52
-32.54
-16.36
-3.20
0.63
-8.57
-18.47
-23.82
-27.13
-29.42
-30.80
-30.93
-29.45
-32.46
-43.61
-53.99
-59.87
-62.95
-63.16
-59.25
-49.63
-33.29
-14.14
4.61
27.19
54.34
83.26
112.10
139.66
165.07
187.59
204.58
214.21
218.63
218.60
213.55
203.97
191.24
177.19
163.52
150.57
138.17
126.87
116.37
105.78
94.63
82.82
70.50
57.97
45.59
33.77
22.82
12.86
3.67
-5.12
-13.84
-22.48
-30.46
-36.72
-40.02
-39.43
-34.81
-26.86
-16.89
-6.25
4.14
14.08
23.74
33.16
41.71
48.04
50.55
48.36
42.06
33.92
27.15
24.70
27.91
35.85
45.67
53.69
56.93
54.07
45.81
34.39
22.92
14.80
13.10
19.86
35.14
56.16
77.34
91.71
93.50
80.80
56.70
28.16
2.95
-13.60
-20.41
-20.08
-16.79
-13.88
-12.61
-12.36
-12.23
-12.77
-16.57
-27.45
-48.34
-78.92
-114.50
-146.94
-167.13
-168.44
-149.36
-114.28
-72.07
-32.98
-5.15
7.67
6.77
-2.64
-13.70
-20.39
-19.84
-13.49
-6.79
-6.83
-18.94
-43.94
-77.47
-112.31
-141.78
-162.51
-175.42
-184.12
-192.14
-200.49
-207.05
-207.77
-200.13
-184.59
-164.09
-142.39
-122.20
-104.22
-87.75
-72.12
-57.24
-45.09
-37.26
-32.15
-24.05
-5.19
30.74
84.88
151.09
218.69
274.33
308.54
320.71
318.91
314.94
318.31
332.05
351.81
369.88
375.69
360.51
321.46
261.95
189.41
113.37
43.95
-19.59
-65.50
-85.21
-83.39
-72.22
-61.11
-53.91
-50.58
-50.06
-51.81
-53.85
-54.79
-51.86
-42.73
-25.78
-3.40
17.45
27.83
20.79
-8.19
-51.91
-98.09
-134.51
-152.80
-150.79
-131.48
-100.59
-64.82
-30.25
-3.10
10.77
8.57
-7.34
-30.54
-52.85
-67.86
-73.61
-71.74
-66.71
-63.66
-65.95
-73.50
-83.61
-92.02
-94.39
-87.60
-70.34
-43.45
-9.99
24.75
54.56
73.24
76.79
64.65
39.59
6.75
-30.54
-65.90
-93.37
-107.20
-107.23
-98.65
-87.91
-79.37
-74.49
-72.77
-72.67
-73.20
-73.36
-72.27
-68.42
-59.51
-45.34
-26.41
-4.74
17.21
36.54
50.70
57.68
56.95
49.63
37.82
24.28
11.32
1.57
-2.54
0.73
11.85
30.34
55.20
84.98
118.02
151.69
184.22
214.85
243.09
268.05
288.83
305.08
316.89
324.48
326.55
322.19
311.28
293.32
266.82
230.10
182.24
123.38
54.51
-23.75
-107.60
-189.05
-258.10
-305.82
-326.42
-318.39
-284.84
-223.39
-145.80
-74.33
-27.50
-10.68
-19.07
-43.43
-73.57
-100.22
-116.82
-122.23
-117.60
-104.76
-86.02
-64.16
-41.65
-20.60
-2.94
9.26
13.23
8.76
-1.23
-12.70
-22.69
-29.94
-34.71
-37.94
-40.57
-43.80
-47.37
-49.77
-49.67
-46.89
-42.34
-37.33
-32.88
-29.40
-27.00
-25.11
-21.91
-16.01
-7.16
3.38
12.98
18.31
16.49
6.24
-10.31
-27.92
-40.17
-41.78
-30.77
-9.25
17.58
43.72
64.77
78.70
85.20
84.34
76.13
60.99
41.17
21.24
6.57
0.53
2.60
8.67
13.58
14.33
11.28
6.88
3.03
-0.90
-7.56
-19.25
-35.64
-53.34
-67.43
-73.94
-71.17
-59.62
-40.80
-16.81
9.48
34.36
53.64
64.41
66.68
63.53
59.40
57.64
58.91
61.15
61.58
58.26
51.41
42.75
33.99
25.88
18.12
10.23
2.37
-4.38
-8.66
-9.73
-8.06
-5.30
-3.62
-4.76
-9.45
-17.17
-26.32
-34.85
-40.85
-43.38
-42.86
-41.00
-39.91
-40.95
-43.80
-46.30
-45.45
-39.05
-26.93
-11.21
4.50
16.56
22.79
22.92
18.19
10.39
1.17
-7.83
-14.65
-16.92
-12.71
-1.64
14.47
31.93
46.60
55.40
57.39
53.63
46.01
35.88
23.73
10.05
-3.58
-14.21
-18.99
-16.06
-5.36
10.85
28.50
43.20
52.22
55.33
53.39
47.10
37.95
28.48
21.32
17.67
17.13
18.53
20.58
22.13
19.85
11.42
-1.95
-16.00
-26.38
-30.22
-26.66
-16.99
-4.53
2.69
-3.15
-25.67
-64.17
-115.89
-176.36
-238.60
-293.11
-309.49
-269.88
-185.14
-85.05
5.22
73.73
118.14
140.67
144.73
133.65
107.76
69.79
27.86
-7.20
-27.92
-33.29
-27.76
-17.81
-8.43
-4.42
-7.14
-13.96
-20.64
-24.48
-24.96
-22.49
-18.13
-11.54
-4.69
0.39
3.11
4.42
5.62
7.77
11.74
18.16
27.11
36.93
45.55
51.70
55.12
56.10
55.15
52.90
50.01
46.97
43.53
39.41
34.62
29.52
24.57
20.10
15.92
12.10
8.64
5.37
2.15
-1.00
-3.94
-6.48
-8.62
-10.53
-12.53
-14.90
-17.74
-20.88
-24.03
-27.09
-30.27
-34.02
-38.73
-44.31
-50.18
-55.45
-59.17
-60.67
-59.69
-56.26
-50.48
-42.51
-32.39
-20.36
-6.89
7.21
20.92
33.24
43.49
51.43
57.24
61.40
64.42
66.56
67.86
68.26
67.85
66.93
66.06
65.73
66.25
67.59
69.34
70.90
71.60
70.97
68.79
65.09
59.96
53.57
46.12
37.60
27.77
16.43
3.67
-9.95
-23.51
-36.26
-47.44
-56.55
-63.51
-68.76
-72.84
-76.03
-78.13
-78.49
-76.86
-72.89
-66.59
-58.78
-51.16
-45.63
-43.47
-44.76
-48.44
-53.53
-58.60
-62.21
-63.49
-62.17
-58.47
-53.06
-47.34
-39.31
-30.80
-25.17
-23.68
-23.88
-21.77
-14.77
-3.15
10.64
23.66
33.44
39.74
43.95
47.46
50.62
52.74
52.96
51.14
48.23
45.15
43.13
43.41
45.54
48.43
50.64
51.18
49.82
47.10
43.41
39.42
35.73
32.53
29.52
26.14
22.07
17.49
13.15
9.37
6.53
4.99
4.63
4.93
5.20
4.88
3.71
2.02
-0.30
-3.03
-5.56
-7.60
-9.26
-11.34
-14.65
-19.84
-26.73
-35.22
-44.43
-53.06
-60.40
-66.77
-73.80
-83.30
-96.97
-108.25
-111.06
-102.52
-82.91
-53.69
-16.80
23.57
61.16
87.38
94.87
80.01
46.24
4.87
-32.43
-54.28
-53.40
-28.51
13.22
59.34
96.02
113.13
106.94
79.18
35.51
-19.98
-71.74
-103.13
-105.41
-81.65
-42.38
0.71
37.78
63.26
75.55
76.86
69.45
55.38
38.28
20.74
7.36
1.71
4.40
11.90
18.54
18.02
7.42
-11.42
-32.30
-47.25
-52.24
-46.44
-33.75
-19.71
-9.15
-3.15
0.30
6.31
21.72
48.38
80.88
108.68
121.74
114.46
87.83
50.44
7.73
-33.82
-69.38
-96.75
-115.82
-127.13
-131.55
-121.98
-100.65
-74.19
-48.60
-27.85
-13.64
-6.24
-4.68
-7.03
-10.85
-14.91
-18.27
-19.82
-18.89
-15.37
-9.63
-1.79
8.49
22.04
38.73
58.90
80.51
100.95
117.11
125.94
125.02
113.19
91.20
61.08
26.59
-8.12
-40.35
-64.05
-74.12
-71.29
-61.49
-51.69
-47.80
-50.25
-57.28
-65.88
-73.13
-75.97
-73.23
-67.21
-61.59
-58.67
-58.47
-59.65
-59.58
-54.29
-36.88
-2.07
50.36
115.28
184.14
246.24
290.50
308.88
280.03
202.75
102.99
14.43
-45.62
-78.29
-93.33
-100.07
-104.94
-106.20
-97.46
-74.87
-40.24
0.15
40.76
75.64
98.89
108.73
107.07
97.66
80.99
54.55
16.35
-29.77
-74.55
-107.48
-121.93
-117.94
-100.38
-78.80
-58.25
-42.24
-31.18
-23.78
-18.77
-15.94
-16.04
-18.79
-24.92
-34.14
-45.63
-56.83
-64.05
-63.82
-54.65
-38.17
-19.01
-4.07
3.40
2.14
-5.55
-14.58
-19.56
-17.09
-6.82
9.03
24.84
35.71
39.91
37.85
31.14
21.72
11.38
2.09
-4.78
-9.09
-11.16
-11.84
-11.60
-10.11
-6.69
-0.59
9.07
21.96
36.53
51.49
66.57
82.63
100.55
119.53
131.26
128.29
108.65
77.36
42.82
12.02
-11.55
-27.73
-38.35
-45.57
-50.00
-51.53
-50.32
-47.35
-44.39
-43.15
-44.57
-48.68
-54.64
-60.40
-63.76
-64.01
-60.21
-52.54
-41.76
-29.14
-16.12
-4.14
6.09
14.13
19.82
23.89
27.24
30.48
33.23
33.95
30.68
22.57
10.59
-2.37
-12.56
-17.35
-16.36
-11.57
-6.18
-2.90
-2.65
-4.73
-7.64
-10.20
-12.33
-14.63
-17.62
-21.22
-24.71
-27.08
-27.67
-26.36
-23.51
-19.85
-15.67
-10.60
-3.54
6.73
20.89
37.91
55.24
69.69
78.56
81.18
78.97
74.60
69.63
65.36
60.58
53.10
41.75
26.37
9.01
-7.24
-19.67
-27.09
-29.85
-29.98
-30.10
-32.53
-38.75
-48.84
-61.54
-74.48
-84.80
-89.91
-88.84
-82.42
-72.84
-62.80
-54.00
-46.30
-37.26
-24.60
-6.08
18.48
46.71
74.11
95.16
104.98
100.73
82.52
53.80
21.13
-7.80
-26.16
-30.33
-21.28
-3.85
15.16
29.68
36.32
35.57
29.50
21.06
12.86
6.65
3.45
3.75
7.51
14.04
21.95
29.03
32.93
31.79
25.02
13.63
0.04
-12.95
-22.78
-27.85
-28.04
-24.66
-19.92
-15.94
-13.87
-13.51
-14.06
-14.14
-12.23
-7.35
0.46
9.96
19.33
26.95
31.85
33.25
31.20
26.97
22.35
18.66
16.27
14.50
12.72
10.42
6.33
-0.59
-10.49
-22.78
-36.87
-52.23
-67.77
-81.43
-84.82
-73.42
-51.11
-27.53
-11.01
-5.19
-9.26
-19.64
-31.56
-42.13
-50.59
-57.17
-61.28
-61.25
-55.52
-43.66
-26.84
-7.11
15.39
37.28
55.25
68.34
78.03
86.17
93.40
98.40
98.47
92.07
76.95
52.97
23.91
-3.21
-20.03
-18.44
2.52
33.16
67.73
101.98
131.71
153.34
165.15
166.45
158.08
142.40
118.59
93.22
72.24
56.43
42.80
29.01
14.92
0.51
-11.69
-20.44
-24.34
-24.55
-23.98
-25.97
-27.61
-28.56
-28.94
-28.69
-29.70
-31.96
-34.78
-37.11
-38.06
-37.24
-35.63
-35.38
-38.66
-50.19
-71.42
-100.05
-131.20
-159.68
-181.51
-194.70
-200.01
-199.30
-198.69
-201.53
-206.97
-212.03
-214.44
-214.01
-211.72
-210.16
-187.23
-136.89
-72.19
-12.58
32.27
64.03
83.39
98.76
113.62
128.51
138.88
142.08
142.01
142.80
147.46
156.69
170.10
185.10
199.07
206.95
206.04
197.06
181.97
162.00
136.62
104.90
65.47
18.78
-33.91
-88.28
-137.67
-176.11
-200.42
-210.71
-208.74
-197.48
-180.14
-161.26
-145.62
-137.20
-138.13
-147.57
-161.61
-174.36
-180.62
-177.44
-164.87
-144.31
-116.78
-82.29
-40.80
6.13
54.27
96.93
126.92
139.40
134.10
115.78
92.73
73.67
64.43
65.80
73.88
82.27
85.46
81.03
70.11
55.66
40.02
23.53
4.68
-17.93
-43.70
-69.18
-89.35
-100.08
-100.36
-92.78
-82.17
-73.50
-70.19
-73.74
-84.19
-100.22
-119.25
-137.10
-147.93
-146.08
-129.04
-99.76
-66.49
-39.34
-25.06
-24.21
-30.94
-35.89
-30.25
-9.32
26.07
69.62
111.10
139.47
144.79
121.46
71.27
4.36
-63.73
-117.48
-146.77
-149.49
-128.30
-90.30
-44.22
2.52
45.11
80.51
106.50
121.79
127.16
130.17
137.27
150.27
166.88
183.76
198.18
208.30
213.61
215.20
222.33
240.79
269.27
302.25
335.17
365.48
391.35
410.97
423.11
436.66
456.75
480.61
501.42
514.83
519.87
517.01
506.81
433.58
284.86
98.40
-72.38
-200.15
-284.72
-336.11
-363.95
-374.78
-373.17
-354.45
-320.05
-280.40
-248.51
-231.20
-227.39
-231.58
-237.83
-242.31
-237.07
-219.79
-195.33
-171.05
-150.91
-135.36
-123.81
-116.35
-113.68
-111.98
-108.92
-105.11
-101.97
-98.96
-93.73
-83.69
-67.68
-46.35
-20.02
7.70
30.37
42.24
41.02
28.34
8.80
-11.99
-28.75
-37.32
-36.51
-28.36
-17.22
-8.55
-7.78
-18.01
-38.52
-63.34
-83.06
-88.72
-76.44
-49.89
-18.98
4.53
14.17
9.80
-2.72
-15.35
-22.13
-21.10
-13.61
-2.36
10.34
22.62
31.17
32.16
22.53
2.46
-22.74
-43.60
-50.46
-38.45
-10.20
24.88
55.47
73.66
78.32
74.40
69.06
67.05
68.28
68.77
63.69
50.96
32.63
13.30
-2.70
-13.50
-20.17
-25.42
-31.69
-39.93
-49.36
-58.41
-65.47
-69.19
-68.31
-61.38
-46.88
-24.13
5.73
39.07
69.88
91.35
98.52
90.93
73.28
53.44
38.49
31.48
29.78
27.66
19.86
4.62
-15.71
-36.63
-54.42
-67.64
-76.57
-80.99
-78.79
-66.34
-41.20
-4.62
37.49
76.29
102.97
111.92
102.37
77.99
45.60
12.71
-14.45
-32.24
-40.15
-40.32
-36.24
-30.66
-25.99
-22.54
-19.81
-17.29
-14.99
-13.48
-13.29
-14.47
-16.67
-19.60
-22.72
-26.40
-31.40
-38.11
-45.79
-52.48
-55.79
-54.08
-47.55
-38.15
-28.87
-22.38
-20.01
-21.64
-26.16
-31.98
-37.29
-40.18
-38.79
-32.20
-21.16
-8.28
2.60
7.88
5.99
-1.72
-11.36
-17.97
-17.26
-7.12
12.04
37.88
66.91
95.25
119.01
134.63
139.52
132.99
116.82
95.20
73.62
56.88
47.58
45.54
48.89
54.89
62.36
71.35
82.28
94.51
105.85
113.34
114.93
110.61
102.16
91.70
80.00
66.08
48.33
26.29
1.86
-21.24
-39.39
-51.14
-57.92
-63.42
-71.40
-84.15
-102.19
-125.23
-153.65
-189.08
-233.55
-287.22
-346.82
-405.52
-455.09
-489.07
-505.21
-505.50
-494.11
-474.49
-447.34
-411.06
-363.67
-305.41
-239.69
-172.59
-110.57
-57.94
-15.36
20.08
53.39
90.05
134.21
187.31
246.87
306.02
354.72
382.10
379.65
344.52
281.76
203.96
128.36
70.84
40.43
36.57
50.13
67.58
76.66
71.01
51.74
26.60
4.19
-10.06
-15.07
-12.83
-6.01
3.81
16.93
34.87
60.97
95.75
136.53
179.85
223.91
268.50
313.23
355.72
391.09
416.57
428.37
423.76
404.24
376.28
348.00
324.87
307.84
294.02
283.35
273.21
258.89
236.39
204.77
165.40
120.57
72.91
-0.68
-97.02
-191.15
-257.71
-288.79
-290.85
-275.60
-254.31
-234.83
-220.34
-205.96
-188.30
-168.07
-148.33
-131.58
-119.14
-111.72
-109.58
-112.54
-116.79
-120.68
-124.73
-129.63
-134.46
-137.63
-138.29
-136.27
-131.30
-118.96
-96.22
-63.52
-25.40
10.43
34.87
40.80
25.40
-5.15
-38.48
-63.16
-73.59
-71.44
-62.96
-55.18
-52.47
-55.13
-60.12
-63.32
-62.17
-56.17
-46.29
-33.73
-19.56
-4.92
8.87
19.75
25.21
23.27
14.21
0.44
-12.93
-19.91
-16.21
-1.14
21.86
46.78
67.70
81.17
87.03
87.66
86.03
84.09
82.14
78.88
72.96
63.57
50.84
35.44
18.85
3.25
-8.43
-12.87
-7.67
8.56
34.96
67.60
99.72
123.34
131.50
120.60
91.55
48.75
-0.13
-46.45
-82.92
-104.98
-111.26
-103.31
-84.86
-55.64
-20.40
14.81
44.08
62.86
68.76
61.91
44.59
20.62
-5.43
-30.20
-50.92
-66.09
-75.59
-80.42
-81.95
-81.62
-80.59
-79.70
-80.17
-82.44
-86.27
-90.92
-95.58
-99.67
-103.07
-105.81
-107.82
-109.06
-108.71
-105.43
-97.82
-85.08
-67.45
-46.27
-23.48
-1.17
18.69
34.94
47.26
55.88
61.13
63.52
62.49
57.88
50.96
43.90
38.71
36.24
35.91
36.05
34.82
31.22
25.72
20.09
16.42
16.16
19.54
25.54
32.52
39.00
44.76
50.26
56.29
63.33
71.15
78.91
85.70
90.94
94.69
97.70
100.71
104.11
107.77
111.23
114.13
116.55
119.13
121.09
122.55
123.28
122.75
120.38
115.95
109.69
102.02
93.25
83.31
72.19
59.96
47.15
34.62
23.33
14.04
6.82
0.88
-4.93
-11.37
-18.65
-26.32
-33.74
-40.21
-45.09
-48.06
-49.37
-49.80
-50.38
-52.21
-55.94
-61.97
-69.51
-76.59
-80.83
-80.90
-77.14
-71.46
-66.55
-64.65
-68.07
-76.87
-88.08
-97.20
-100.64
-97.24
-88.73
-79.51
-75.75
-86.63
-117.62
-166.02
-221.29
-269.43
-297.55
-297.28
-266.45
-209.20
-139.46
-72.23
-18.12
17.47
32.30
27.07
6.43
-21.77
-49.60
-78.96
-114.47
-158.00
-207.39
-258.81
-308.30
-352.45
-389.20
-378.73
-304.41
-187.47
-69.50
22.79
86.67
131.58
168.33
204.25
242.01
273.97
292.46
298.72
298.60
297.03
294.91
289.94
278.65
258.16
222.73
170.79
107.22
41.64
-16.26
-61.44
-92.99
-112.10
-120.37
-121.85
-118.85
-110.54
-94.74
-71.00
-41.89
-11.76
14.51
32.43
37.04
25.81
0.47
-33.16
-66.97
-93.05
-105.51
-102.18
-85.15
-60.36
-34.69
-13.21
2.03
11.65
17.63
22.19
27.07
33.30
41.32
51.15
62.32
73.70
83.46
89.43
89.60
82.78
69.05
49.79
27.47
5.13
-14.33
-28.73
-37.02
-39.19
-35.74
-27.09
-13.23
6.04
30.36
58.03
85.82
109.69
126.15
133.64
133.04
126.99
118.63
110.37
103.22
97.16
91.75
86.68
81.81
77.07
72.20
66.92
61.05
54.69
48.11
41.48
34.63
27.06
18.17
7.66
-4.12
-16.33
-27.82
-37.34
-43.69
-45.88
-43.40
-36.47
-26.22
-14.39
-3.22
5.19
9.56
9.80
6.71
1.31
-5.80
-14.70
-25.20
-36.96
-48.89
-58.89
-64.26
-62.62
-53.03
-36.44
-15.57
6.95
28.38
46.30
58.89
65.16
64.94
59.22
50.31
41.45
36.81
38.15
44.03
50.38
53.31
51.46
47.25
45.79
44.93
44.32
43.94
43.82
43.24
41.50
37.59
29.59
14.83
-8.51
-38.44
-69.97
-96.73
-114.05
-120.77
-120.23
-118.27
-120.65
-129.80
-142.84
-155.44
-160.53
-153.24
-131.65
-97.75
-57.01
-16.89
15.32
35.50
43.12
41.41
35.49
31.18
32.17
39.03
49.38
59.28
65.14
64.40
55.89
36.40
5.95
-33.13
-75.86
-115.26
-143.35
-153.03
-140.60
-107.16
-59.08
-5.49
43.85
81.49
103.17
107.53
95.35
69.17
33.45
-5.32
-38.90
-59.68
-62.73
-47.68
-18.22
20.48
64.03
109.19
152.47
188.88
211.33
212.74
188.27
138.13
69.17
-6.52
-75.31
-125.99
-152.17
-152.93
-131.50
-94.91
-52.30
-12.38
18.18
35.02
35.84
20.77
-9.62
-46.15
-73.72
-81.23
-67.96
-41.23
-11.13
13.84
29.16
34.91
34.71
32.06
28.52
24.03
18.11
10.58
1.91
-6.64
-13.22
-15.64
-13.46
-7.72
-0.32
7.10
13.51
18.49
22.09
24.44
25.64
25.09
21.85
15.62
7.28
-1.42
-8.79
-13.93
-16.98
-18.82
-20.41
-22.69
-26.03
-30.02
-33.84
-36.77
-38.48
-39.00
-38.57
-37.51
-36.11
-34.56
-32.86
-30.96
-28.90
-26.86
-25.08
-23.74
-22.81
-22.05
-20.95
-19.01
-15.97
-12.03
-7.90
-4.44
-2.21
-1.18
-0.63
0.68
3.93
9.77
17.89
27.01
35.22
40.61
41.56
37.21
28.02
15.96
4.41
-2.59
-1.62
8.84
27.83
51.45
74.25
91.31
99.86
99.89
93.47
83.17
71.10
58.74
46.55
34.72
23.90
14.93
8.23
3.29
-1.59
-8.27
-17.38
-28.74
-41.00
-51.79
-58.64
-59.96
-53.81
-41.46
-29.30
-20.58
-16.43
-17.05
-21.39
-27.77
-34.64
-40.81
-45.73
-49.12
-50.42
-49.83
-48.19
-46.77
-46.91
-49.47
-53.53
-56.59
-55.69
-48.65
-35.82
-19.67
-3.48
10.18
20.47
29.36
40.16
55.03
73.80
94.07
112.89
128.01
137.81
140.24
133.46
116.11
87.98
51.80
14.27
-15.29
-28.64
-20.78
-0.92
12.98
8.88
-12.52
-40.99
-64.03
-73.49
-69.25
-57.25
-45.28
-37.33
-32.17
-26.72
-19.86
-14.00
-13.85
-24.10
-45.79
-74.82
-102.39
-118.58
-117.19
-98.70
-70.26
-39.25
-12.83
5.00
13.64
14.95
11.41
4.69
-3.79
-11.91
-15.41
-11.22
1.20
19.88
40.70
59.35
73.01
80.78
82.40
76.58
60.50
32.66
-3.81
-40.91
-68.23
-77.44
-66.25
-39.11
-4.80
26.23
44.23
47.32
41.14
33.24
27.84
24.97
22.93
20.73
18.75
18.14
21.24
26.77
30.86
28.89
18.30
0.97
-17.73
-31.68
-36.38
-29.93
-12.75
12.48
42.13
70.46
92.99
105.95
106.14
92.00
59.79
15.25
-27.92
-56.12
-63.84
-54.40
-36.49
-19.19
-8.54
-6.19
-9.56
-14.89
-19.41
-21.59
-20.49
-15.86
-8.61
0.20
9.37
18.10
24.71
26.48
21.55
11.01
-0.84
-8.04
-6.72
3.59
19.54
34.82
42.85
40.37
28.81
12.64
-3.35
-16.26
-25.46
-31.37
-34.54
-35.49
-34.35
-31.48
-27.96
-25.53
-25.88
-29.85
-37.15
-43.89
-47.46
-46.74
-42.11
-34.90
-26.62
-18.41
-10.52
-2.36
7.01
17.59
28.37
37.31
41.92
40.14
31.22
16.18
-2.53
-21.51
-37.51
-47.58
-49.46
-42.08
-26.08
-4.09
19.42
39.22
50.75
51.49
42.05
26.00
8.43
-5.79
-13.72
-15.36
-13.33
-11.56
-13.12
-19.32
-28.98
-39.23
-46.68
-48.96
-45.62
-38.04
-28.43
-18.74
-9.81
-1.30
7.27
15.94
23.86
29.75
32.80
33.20
32.20
30.62
29.69
29.16
27.72
23.96
17.62
10.06
3.79
1.23
3.68
10.63
19.81
28.16
33.05
33.17
28.87
21.92
14.79
9.92
8.75
11.02
15.05
18.32
18.50
14.24
5.47
-6.81
-21.16
-35.73
-48.40
-56.69
-58.03
-50.62
-34.36
-11.16
14.17
36.23
50.66
55.39
51.10
40.63
27.83
16.03
6.90
0.03
-6.66
-15.88
-29.37
-46.67
-64.79
-79.33
-86.94
-87.77
-84.27
-80.11
-77.66
-75.98
-71.19
-59.07
-37.87
-9.93
19.23
42.99
57.04
60.57
55.62
45.48
33.46
22.41
14.80
12.62
16.68
25.79
36.99
46.96
53.40
55.87
55.01
51.39
44.62
33.59
18.03
-0.52
-17.86
-28.72
-29.23
-19.09
-2.34
14.24
24.18
24.07
14.96
1.50
-10.61
-17.29
-17.64
-13.72
-8.97
-6.23
-6.41
-8.60
-10.98
-12.14
-11.77
-10.64
-9.95
-10.51
-12.41
-14.76
-16.20
-15.67
-13.03
-9.18
-5.45
-2.77
-0.99
0.90
4.15
9.42
16.36
23.81
30.39
35.11
37.20
36.98
34.77
30.94
26.20
21.70
18.82
18.55
20.96
25.05
29.03
30.89
29.16
23.30
14.00
2.98
-7.54
-15.58
-20.25
-21.80
-21.44
-20.61
-20.07
-19.69
-18.87
-17.32
-15.60
-14.97
-16.53
-20.58
-26.31
-32.15
-36.52
-38.33
-36.85
-31.58
-22.08
-8.61
6.97
20.99
28.95
27.40
15.71
-3.33
-24.75
-43.37
-55.73
-60.92
-59.95
-54.45
-45.86
-35.37
-24.60
-15.94
-11.80
-13.67
-21.40
-33.00
-45.42
-55.92
-63.09
-67.35
-70.56
-74.39
-79.32
-84.15
-86.41
-83.38
-73.14
-55.41
-30.55
-1.79
27.15
53.46
76.04
95.53
113.80
133.04
154.75
178.35
201.52
221.12
233.66
235.83
225.38
202.20
168.88
130.53
92.33
59.44
36.40
25.81
27.28
37.88
53.50
70.23
84.84
92.67
89.86
74.63
47.61
11.24
-30.73
-73.62
-112.64
-144.27
-169.48
-190.15
-207.11
-220.20
-229.92
-238.20
-247.57
-259.55
-258.28
-233.89
-188.54
-133.57
-79.18
-30.38
11.38
46.41
75.73
99.50
113.61
113.76
98.53
70.89
37.35
6.72
-13.90
-19.18
-6.71
16.94
41.25
57.39
61.93
57.19
49.36
44.98
48.05
57.99
69.06
75.01
72.51
62.19
47.35
31.85
18.30
7.85
0.31
-5.78
-11.25
-15.78
-18.53
-19.12
-17.96
-16.42
-16.00
-17.79
-22.29
-28.79
-35.52
-40.66
-43.61
-44.27
-43.89
-44.05
-45.94
-49.70
-54.41
-58.52
-60.14
-59.10
-55.62
-50.27
-43.21
-34.19
-22.74
-8.85
6.63
22.05
35.44
45.46
51.42
53.25
51.08
45.11
35.82
24.52
13.51
5.61
3.30
7.28
15.88
25.48
31.92
32.47
27.26
19.40
13.68
14.18
22.17
35.44
48.85
56.90
56.05
46.21
30.24
12.01
-5.26
-19.51
-29.37
-33.48
-30.68
-21.11
-7.27
6.21
14.41
14.59
7.54
-2.98
-12.63
-18.82
-21.70
-23.15
-24.63
-25.61
-23.72
-16.47
-3.32
13.40
29.30
40.00
42.93
38.49
29.43
19.56
11.80
7.26
5.31
4.47
3.68
2.88
2.88
4.59
8.10
12.36
15.58
16.08
13.07
7.04
-0.50
-7.57
-12.50
-14.41
-13.48
-10.70
-7.43
-4.87
-3.69
-3.98
-5.30
-6.86
-7.87
-7.61
-5.66
-1.93
3.25
9.25
15.15
20.03
23.20
24.37
23.66
21.39
17.80
12.85
6.56
-1.29
-11.02
-22.83
-36.42
-50.72
-63.92
-73.75
-78.14
-75.78
-66.64
-51.93
-33.60
-13.78
5.72
23.59
38.88
50.83
58.62
61.53
59.14
51.81
40.74
27.90
15.53
5.64
-0.53
-2.66
-1.39
2.10
6.46
10.55
13.68
15.58
16.21
15.53
13.38
9.48
3.63
-4.02
-12.91
-22.16
-30.89
-38.45
-44.59
-49.33
-52.75
-54.78
-55.19
-53.71
-50.24
-44.99
-38.41
-31.01
-23.24
-15.35
-7.49
0.19
7.46
14.03
19.67
24.27
27.87
30.55
32.36
33.35
33.58
33.22
32.55
31.84
31.27
30.73
29.88
28.31
25.70
22.08
17.89
13.83
10.66
8.82
8.35
8.76
9.34
9.41
8.61
7.00
4.94
2.85
1.00
-0.56
-2.01
-3.53
-5.22
-7.00
-8.62
-9.82
-10.40
-10.26
-9.42
-8.00
-6.10
-3.85
-1.30
1.48
4.40
7.30
9.93
12.03
13.38
13.89
13.68
13.07
12.44
12.18
12.51
13.41
14.67
15.93
16.83
17.10
16.57
15.24
13.14
10.40
7.21
3.84
0.60
-2.22
-4.44
-6.12
-7.45
-8.70
-10.05
-11.45
-12.69
-13.55
-13.97
-14.13
-14.36
-14.91
-15.82
-16.89
-17.84
-18.49
-18.83
-19.01
-19.18
-19.37
-19.45
-19.20
-18.47
-17.19
-15.36
-13.04
-10.24
-7.03
-3.55
-0.07
3.07
5.58
7.34
8.43
9.10
9.64
10.24
10.96
11.76
12.54
13.22
13.72
13.95
13.79
13.14
12.00
10.52
8.94
7.51
6.39
5.53
4.78
3.92
2.87
1.59
0.19
-1.28
-2.78
-4.31
-5.88
-7.44
-8.96
-10.42
-11.87
-13.35
-14.88
-16.40
-17.81
-18.98
-19.81
-20.29
-20.48
-20.40
-20.04
-19.28
-17.99
-16.10
-13.65
-10.77
-7.65
-4.49
-1.42
1.47
4.09
6.35
8.13
9.32
9.87
9.82
9.36
8.76
8.31
8.24
8.57
9.13
9.61
9.69
9.19
8.20
7.03
6.02
5.38
5.08
4.88
4.52
3.85
2.86
1.62
0.13
-1.70
-4.00
-6.81
-10.01
-13.34
-16.53
-19.48
-22.22
-24.86
-27.42
-29.75
-31.59
-32.63
-32.59
-31.30
-28.69
-24.80
-19.84
-14.09
-7.88
-1.49
4.88
11.05
16.71
21.36
24.41
25.41
24.30
21.52
17.90
14.35
11.56
9.86
9.22
9.46
10.31
11.54
12.94
14.31
15.51
16.45
17.13
17.54
17.59
17.13
15.96
13.97
11.24
8.02
4.70
1.56
-1.21
-3.61
-5.72
-7.60
-9.17
-10.28
-10.77
-10.67
-10.20
-9.79
-9.91
-10.88
-12.74
-15.26
-18.02
-20.49
-22.18
-22.74
-21.93
-19.76
-16.47
-12.47
-8.26
-4.28
-0.82
2.01
4.19
5.72
6.62
6.95
6.83
6.46
6.08
5.85
5.81
5.91
6.13
6.47
7.00
7.71
8.48
9.05
9.14
8.60
7.48
6.02
4.50
3.15
2.04
1.09
0.13
-0.99
-2.33
-3.89
-5.58
-7.25
-8.82
-10.19
-11.36
-12.39
-13.38
-14.47
-15.77
-17.34
-19.12
-20.93
-22.44
-23.29
-23.18
-21.96
-19.67
-16.47
-12.62
-8.30
-3.69
0.99
5.44
9.28
12.15
13.87
14.52
14.42
14.01
13.70
13.68
13.95
14.31
14.55
14.51
14.11
13.39
12.38
11.13
9.67
8.09
6.51
5.12
4.06
3.36
2.88
2.37
1.56
0.31
-1.37
-3.29
-5.15
-6.69
-7.79
-8.47
-8.91
-9.37
-10.04
-11.01
-12.22
-13.55
-14.89
-16.14
-17.23
-18.05
-18.38
-17.92
-16.44
-13.81
-10.18
-5.91
-1.43
2.77
6.37
9.18
11.18
12.46
13.18
13.55
13.73
13.83
13.90
13.94
13.93
13.84
13.67
13.39
12.99
12.46
11.82
11.09
10.25
9.22
7.91
6.29
4.33
2.14
0.02
-1.75
-3.05
-3.98
-4.75
-5.54
-6.40
-7.39
-8.50
-9.66
-10.89
-12.26
-13.89
-15.77
-17.81
-19.82
-21.82
-23.73
-25.25
-25.97
-25.63
-24.12
-21.48
-17.88
-13.55
-9.46
-6.28
-3.97
-2.18
-0.76
0.23
0.71
0.79
0.72
-0.58
-3.50
-7.19
-10.32
-12.35
-13.56
-14.60
-15.91
-17.52
-21.32
-27.80
-35.29
-41.44
-45.25
-47.30
-48.99
-51.68
-56.31
-66.08
-81.98
-101.51
-120.59
-136.32
-147.79
-155.25
-159.29
-141.69
-96.83
-35.52
25.56
76.95
117.10
147.16
167.99
179.58
181.53
170.82
147.19
115.38
82.73
56.24
40.42
36.52
42.21
52.52
59.35
57.02
45.16
26.64
5.15
-16.73
-37.85
-57.95
-76.12
-91.19
-100.90
-98.71
-80.35
-46.08
-1.04
47.13
91.14
126.19
149.50
158.24
153.37
135.83
107.27
71.09
33.09
-0.17
-23.83
-36.90
-42.18
-43.98
-47.00
-54.04
-65.33
-77.62
-86.28
-86.98
-77.56
-59.16
-35.85
-13.64
2.35
10.20
12.28
13.67
19.45
32.12
50.86
72.62
93.34
109.18
117.27
116.59
107.90
93.55
77.38
63.78
56.49
56.75
61.98
66.62
65.01
53.66
31.89
1.74
-33.85
-72.65
-109.13
-136.23
-149.19
-146.84
-130.67
-104.65
-74.06
-45.26
-24.40
-15.89
-19.03
-30.12
-42.63
-49.11
-44.50
-25.56
8.47
55.08
106.84
151.81
177.68
176.42
146.74
92.81
24.88
-44.12
-102.91
-144.76
-166.90
-169.27
-153.22
-113.33
-58.13
-4.79
34.81
60.17
76.37
87.42
92.92
88.76
70.29
35.37
-8.64
-50.81
-79.08
-86.34
-73.26
-47.36
-18.92
3.91
17.58
23.07
27.80
39.36
59.02
81.71
99.98
108.47
105.81
93.42
74.95
54.31
34.19
15.64
-1.03
-15.29
-26.46
-34.33
-39.36
-41.87
-41.83
-39.47
-35.93
-32.68
-31.13
-32.64
-37.37
-44.80
-54.27
-65.29
-77.62
-90.56
-101.91
-107.77
-101.84
-82.83
-52.91
-17.90
14.71
38.87
52.37
57.14
57.45
57.11
57.36
57.33
55.51
51.27
45.66
40.91
39.12
41.23
46.60
53.31
58.89
61.15
58.10
48.36
31.57
8.80
-17.49
-43.77
-66.68
-84.17
-95.06
-99.84
-100.08
-97.60
-93.64
-88.27
-80.45
-68.15
-50.82
-28.71
-3.70
21.16
42.79
59.09
69.48
74.62
75.54
72.84
66.89
57.80
46.23
33.60
21.84
12.68
6.98
4.68
4.75
6.23
8.19
10.05
11.42
11.95
11.29
8.99
4.80
-1.28
-8.66
-16.40
-23.25
-28.15
-30.51
-30.25
-27.86
-24.06
-19.81
-15.73
-12.48
-10.51
-10.07
-10.96
-12.37
-13.01
-11.46
-6.86
0.81
10.36
19.99
27.94
33.09
35.45
35.70
34.62
32.53
29.33
24.96
19.94
15.47
12.92
13.13
15.75
19.15
21.24
20.41
16.25
9.33
0.61
-9.25
-19.85
-30.70
-40.64
-47.77
-50.04
-46.18
-36.49
-22.77
-7.54
7.15
20.02
30.47
37.86
41.08
38.71
29.76
14.54
-4.96
-25.46
-41.93
-49.87
-46.86
-33.42
-12.57
11.34
34.08
52.76
66.30
75.14
80.33
83.01
84.03
84.00
83.25
81.82
79.33
75.02
67.85
56.56
40.11
18.09
-9.03
-39.78
-71.82
-102.27
-128.30
-147.66
-159.33
-163.56
-161.48
-154.54
-143.98
-130.75
-115.70
-100.03
-85.34
-73.41
-65.58
-62.05
-61.74
-62.46
-61.50
-56.29
-45.03
-27.19
-3.83
22.36
47.53
67.80
80.81
86.65
87.95
88.52
91.48
97.71
105.69
112.69
116.48
116.42
113.33
108.42
102.36
95.32
87.89
81.94
80.38
85.85
98.82
116.75
134.76
147.68
152.21
147.92
136.86
122.09
106.36
91.54
78.85
69.31
63.76
62.46
64.49
67.85
70.13
69.60
66.12
61.01
56.34
53.64
52.99
52.96
51.37
46.22
36.64
23.25
7.34
-9.61
-26.19
-41.13
-53.43
-62.45
-68.35
-71.95
-74.32
-76.86
-80.67
-86.07
-92.73
-100.03
-107.43
-114.91
-122.17
-128.05
-131.87
-133.51
-133.44
-132.77
-133.04
-135.73
-142.79
-154.39
-167.80
-181.15
-193.44
-203.74
-211.43
-215.94
-216.61
-214.75
-209.69
-196.75
-174.70
-145.09
-110.08
-72.35
-34.83
-0.33
24.97
38.30
44.05
42.98
33.84
17.20
-5.02
-30.04
-54.88
-81.68
-109.33
-128.62
-136.38
-133.40
-120.05
-97.13
-66.61
-1.59
94.69
168.45
212.16
237.44
248.15
247.86
239.87
226.96
211.35
189.98
163.35
140.42
124.17
113.37
107.03
104.03
103.03
102.70
98.12
87.52
76.22
65.65
55.22
45.75
38.61
34.86
34.61
34.52
32.24
29.43
25.40
18.80
10.14
1.12
-6.30
-10.84
-13.56
-15.87
-17.61
-19.85
-23.23
-26.71
-28.57
-27.68
-24.23
-19.86
-16.30
-14.08
-14.36
-17.54
-22.86
-29.41
-37.05
-46.26
-57.14
-69.39
-81.81
-94.78
-107.90
-119.56
-128.46
-134.96
-140.84
-147.38
-155.19
-163.20
-172.51
-182.70
-190.56
-192.36
-186.17
-172.25
-151.59
-127.18
-102.57
-85.76
-82.02
-90.47
-106.53
-125.80
-146.18
-166.87
-189.69
-188.46
-153.06
-96.72
-41.17
2.29
33.31
49.32
56.78
57.74
52.80
38.06
11.65
-19.75
-48.68
-69.57
-79.69
-77.09
-62.34
-36.92
-6.72
23.24
52.98
83.87
115.62
145.83
172.69
194.61
211.81
224.14
233.76
247.80
271.87
305.71
342.93
375.14
394.06
394.03
371.94
328.99
274.46
219.46
172.64
138.94
121.29
120.25
133.62
156.38
161.36
133.51
80.16
22.41
-24.77
-58.03
-80.81
-97.92
-112.68
-125.81
-132.60
-129.16
-116.13
-98.52
-82.14
-71.12
-67.25
-70.19
-77.68
-83.82
-83.92
-77.05
-65.52
-51.89
-38.07
-26.08
-18.41
-18.97
-28.95
-47.17
-70.16
-92.39
-107.14
-109.39
-97.64
-76.31
-52.32
-30.11
-10.58
8.17
27.05
45.14
59.73
67.55
66.58
57.55
43.97
30.19
19.27
12.09
7.95
5.66
4.44
4.49
6.78
11.36
18.44
26.89
34.95
41.15
45.02
46.82
46.93
44.98
39.73
29.66
13.93
-6.28
-27.69
-45.85
-57.15
-60.38
-57.18
-50.88
-44.59
-40.33
-37.73
-36.17
-35.65
-37.32
-42.82
-53.02
-66.77
-79.68
-87.04
-84.56
-71.12
-49.52
-25.69
-5.99
5.56
8.85
7.11
4.46
3.79
5.40
8.09
10.37
12.54
16.52
24.23
36.18
50.80
65.59
78.11
86.72
90.00
86.60
75.18
55.35
28.91
-0.02
-26.11
-45.11
-55.22
-58.82
-59.71
-60.19
-60.01
-57.27
-50.53
-40.11
-28.09
-16.83
-7.61
0.06
7.60
15.80
24.37
31.94
37.10
39.30
39.05
37.88
36.70
36.27
36.64
37.11
36.52
33.75
28.14
19.91
9.87
-0.66
-10.29
-18.19
-24.23
-28.84
-32.48
-35.33
-37.17
-37.82
-37.17
-35.35
-32.93
-30.61
-28.92
-28.03
-27.85
-28.35
-30.01
-33.34
-38.61
-45.63
-53.75
-62.01
-69.48
-75.39
-77.43
-74.37
-65.13
-48.49
-23.17
11.44
54.32
101.95
148.51
187.01
211.03
216.84
204.05
174.66
131.40
76.62
12.68
-56.24
-122.62
-176.15
-206.35
-206.96
-179.50
-133.49
-83.02
-41.19
-15.31
-5.28
-5.62
-9.06
-10.16
-6.86
0.30
9.81
20.70
32.74
45.82
59.15
71.38
81.22
88.48
94.50
101.46
110.93
122.44
132.93
137.36
130.47
108.56
70.76
19.30
-41.06
-103.94
-162.20
-209.00
-238.75
-248.44
-238.54
-213.13
-178.72
-142.11
-108.16
-78.41
-51.40
-24.36
4.57
34.73
62.89
84.63
96.31
96.68
87.17
71.07
52.31
34.47
20.29
11.68
9.81
14.69
24.77
36.93
47.55
54.25
57.35
59.92
66.06
78.22
95.25
112.42
123.47
123.62
111.70
90.35
64.42
38.70
16.52
-0.45
-11.36
-15.46
-12.23
-2.01
13.26
30.13
44.67
53.81
56.36
53.26
46.98
40.40
35.75
34.04
34.98
37.39
39.84
41.17
40.86
39.05
36.33
33.41
30.89
29.09
28.08
27.79
28.05
28.64
29.27
29.57
29.22
28.01
25.93
23.17
20.03
16.82
13.78
11.06
8.65
6.47
4.36
2.20
-0.08
-2.36
-4.45
-6.16
-7.40
-8.29
-9.04
-9.91
-10.99
-12.21
-13.34
-14.12
-14.40
-14.22
-13.74
-13.27
-13.11
-13.51
-14.59
-16.30
-18.46
-20.80
-23.11
-25.34
-27.61
-30.10
-32.90
-35.80
-38.30
-39.79
-39.80
-38.29
-35.65
-32.61
-29.88
-27.88
-26.62
-25.90
-25.48
-25.27
-25.35
-25.83
-26.68
-27.67
-28.48
-28.86
-28.73
-28.20
-27.53
-27.03
-26.91
-27.31
-28.17
-29.24
-30.03
-29.93
-28.35
-24.96
-19.90
-13.71
-7.19
-1.11
4.01
8.00
10.92
12.90
14.04
14.31
13.65
12.08
9.77
7.07
4.38
2.02
0.07
-1.62
-3.36
-5.46
-8.06
-11.04
-14.08
-16.82
-19.05
-20.82
-22.38
-24.05
-26.01
-28.20
-30.35
-32.09
-33.15
-33.48
-33.30
-32.96
-32.80
-33.01
-33.55
-34.18
-34.61
-34.60
-34.13
-33.41
-32.83
-32.85
-33.78
-35.66
-38.14
-40.48
-41.78
-41.16
-38.15
-32.83
-25.86
-18.27
-11.03
-4.73
0.65
5.65
11.02
17.20
24.06
30.77
36.10
38.98
39.09
37.17
34.90
34.24
36.64
42.36
50.14
57.47
61.07
57.62
44.61
21.22
-11.03
-48.00
-83.72
-112.13
-129.28
-134.98
-132.81
-128.47
-126.94
-130.24
-136.74
-142.38
-143.07
-136.71
-123.77
-106.47
-87.14
-67.17
-46.81
-25.89
-4.70
15.68
33.71
48.15
58.60
65.61
70.16
73.17
75.01
75.49
74.17
70.79
65.62
59.48
53.61
49.25
47.24
47.75
50.13
53.11
55.15
54.95
51.94
46.42
39.54
32.82
27.53
24.26
22.64
21.64
20.00
16.80
11.76
5.20
-2.13
-9.47
-16.15
-21.66
-25.58
-27.44
-26.76
-23.14
-16.48
-7.01
4.72
17.97
31.95
45.92
59.22
71.28
81.55
89.64
95.33
98.59
99.78
99.55
98.59
97.37
96.06
94.66
93.01
91.01
88.51
85.57
82.42
79.31
76.30
73.25
69.80
65.43
59.64
51.77
41.73
30.06
17.67
5.29
-6.67
-18.24
-29.86
-42.17
-56.53
-73.32
-91.58
-109.65
-126.10
-140.06
-151.24
-159.99
-167.07
-174.85
-184.05
-193.17
-200.02
-203.38
-203.17
-200.11
-195.31
-189.86
-186.98
-187.17
-187.89
-185.91
-179.86
-170.15
-158.15
-145.51
-133.80
-127.39
-127.19
-129.74
-130.07
-124.85
-112.27
-91.61
-63.21
-8.17
70.49
151.05
212.06
246.29
256.58
249.17
230.17
204.44
175.78
143.89
109.94
77.79
52.10
34.74
25.27
21.49
20.43
20.26
19.01
18.77
24.51
42.10
70.58
104.49
136.71
161.41
176.18
179.78
172.23
153.15
121.23
76.77
25.95
-19.66
-47.66
-49.82
-26.29
15.37
64.04
106.75
130.33
132.60
123.79
114.78
108.13
98.50
79.16
47.41
6.02
-37.59
-74.84
-99.89
-111.42
-111.21
-101.79
-85.88
-66.98
-51.22
-41.60
-40.11
-46.68
-58.99
-72.46
-81.49
-81.70
-69.44
-48.10
-23.19
-0.08
17.88
29.38
34.76
35.42
32.97
28.82
23.98
20.99
21.60
26.87
35.99
46.20
53.91
56.32
52.73
43.67
34.00
27.90
27.22
30.66
34.53
34.69
28.48
15.65
-1.93
-20.50
-36.97
-49.25
-56.61
-59.34
-58.40
-55.06
-50.86
-47.84
-46.16
-45.78
-45.53
-43.33
-37.22
-26.59
-12.79
1.44
12.49
18.94
21.34
21.72
21.99
22.60
22.53
20.43
15.85
9.95
5.41
4.65
8.87
17.97
30.63
44.64
57.41
66.25
68.12
62.23
49.18
31.16
11.43
-6.88
-21.75
-32.67
-40.40
-46.37
-51.14
-54.79
-57.10
-57.58
-55.65
-50.68
-42.07
-29.67
-13.90
3.05
18.39
29.64
35.51
36.19
33.18
28.40
23.43
19.10
15.44
12.30
9.19
6.07
3.27
1.59
2.06
5.64
12.84
23.16
35.32
47.39
57.22
62.75
62.44
55.74
43.45
27.81
11.78
-1.71
-10.93
-15.95
-18.45
-20.75
-24.75
-31.20
-39.60
-48.78
-57.26
-63.69
-67.23
-67.92
-66.89
-66.33
-68.89
-74.81
-82.02
-85.78
-80.69
-63.84
-37.37
-8.60
13.13
20.94
14.59
0.83
-9.66
-7.67
10.39
40.84
75.23
104.45
121.91
124.75
113.07
89.25
57.51
23.71
-5.48
-24.37
-30.41
-25.22
-13.62
-1.16
8.60
15.01
19.25
22.42
24.22
23.18
18.27
10.21
1.47
-5.00
-7.39
-6.32
-4.28
-4.13
-7.28
-13.11
-19.33
-23.37
-23.65
-20.25
-14.67
-8.95
-4.85
-3.17
-3.73
-5.71
-8.06
-9.93
-10.92
-11.09
-10.79
-10.46
-10.41
-10.74
-11.32
-11.91
-12.24
-12.04
-11.07
-9.15
-6.18
-2.32
2.06
6.41
10.18
12.94
14.48
14.71
13.60
11.03
6.96
1.54
-4.66
-10.64
-15.27
-17.61
-17.29
-14.60
-10.40
-5.85
-2.14
-0.18
-0.45
-2.86
-6.77
-11.20
-15.08
-17.71
-19.19
-20.38
-22.61
-26.95
-33.61
-41.66
-49.22
-54.16
-54.64
-50.31
-42.75
-35.16
-31.23
-33.66
-42.92
-56.94
-71.73
-82.81
-86.85
-82.57
-70.86
-54.04
-34.91
-15.85
1.84
18.32
35.29
55.71
82.81
118.69
162.89
211.75
259.30
299.09
326.51
340.19
341.85
334.63
321.02
301.66
275.53
241.56
200.28
154.59
109.31
69.71
40.01
22.47
17.23
22.73
36.15
54.00
72.63
88.86
100.64
107.38
109.89
109.55
107.44
103.81
98.25
90.52
81.21
71.82
64.15
59.26
56.70
54.68
51.04
44.43
35.10
24.75
15.55
9.18
6.39
7.15
11.25
18.44
27.99
38.20
46.23
49.08
44.84
33.80
18.24
1.16
-15.57
-32.12
-50.22
-71.62
-96.38
-122.37
-146.06
-164.23
-175.44
-180.52
-181.91
-182.44
-184.37
-188.91
-196.38
-206.73
-219.85
-235.57
-253.39
-271.99
-289.00
-301.19
-305.00
-297.53
-277.37
-244.97
-202.49
-153.15
-100.37
-47.14
4.15
51.61
93.54
128.31
154.49
171.11
177.97
175.65
165.40
148.78
127.44
102.97
76.80
50.22
24.38
0.35
-20.87
-38.27
-50.99
-58.47
-60.75
-58.59
-53.42
-47.00
-40.93
-36.28
-33.40
-32.15
-32.20
-33.37
-35.78
-39.71
-45.31
-52.22
-59.54
-65.93
-70.14
-71.40
-69.81
-66.19
-61.77
-57.59
-54.22
-51.62
-49.41
-47.21
-44.87
-42.45
-40.04
-37.58
-34.85
-31.59
-27.75
-23.55
-19.46
-15.97
-13.44
-12.05
-11.80
-12.74
-14.92
-18.42
-23.15
-28.73
-34.45
-39.42
-42.71
-43.59
-41.74
-37.34
-31.09
-23.99
-17.06
-11.03
-6.11
-2.10
1.39
4.68
7.78
10.50
12.60
13.96
14.59
14.54
13.77
12.10
9.39
5.63
1.16
-3.49
-7.72
-11.05
-13.26
-14.34
-14.43
-13.76
-12.56
-11.08
-9.59
-8.39
-7.79
-7.98
-9.05
-10.90
-13.33
-16.10
-19.00
-21.88
-24.63
-27.13
-29.31
-31.10
-32.45
-33.22
-33.21
-32.04
-29.39
-25.09
-19.40
-12.89
-6.36
-0.44
4.58
8.71
12.05
14.58
16.04
16.14
14.81
12.35
9.45
6.84
5.03
4.10
3.86
3.99
4.19
4.32
4.37
4.40
4.49
4.66
4.86
4.96
4.80
4.32
3.73
3.50
4.24
6.38
9.94
14.12
18.01
21.05
22.97
23.58
22.66
20.01
15.61
9.72
2.52
-5.43
-13.16
-19.68
-24.35
-26.93
-27.45
-26.18
-23.58
-21.08
-19.47
-18.42
-16.97
-14.55
-11.33
-8.13
-6.00
-5.87
-10.35
-19.88
-31.80
-42.39
-49.54
-53.25
-54.90
-56.21
-58.66
-67.80
-85.32
-107.15
-126.96
-141.11
-149.49
-154.06
-157.34
-161.45
-175.11
-201.10
-233.13
-261.34
-279.65
-287.01
-284.92
-275.78
-262.48
-258.51
-271.86
-299.73
-333.34
-365.44
-390.95
-405.14
-403.94
-323.77
-154.37
51.66
227.42
343.94
407.44
436.32
447.02
449.43
447.51
432.10
399.61
357.87
319.54
292.21
276.63
269.70
267.15
265.22
253.90
229.43
197.49
167.68
145.89
133.01
127.13
125.32
124.66
118.14
102.68
81.43
60.57
44.59
35.45
33.12
36.51
43.90
50.90
54.76
56.11
57.43
60.93
66.60
74.71
84.54
94.95
104.07
110.72
114.33
113.82
106.87
90.96
65.43
32.50
-2.80
-34.47
-58.04
-72.26
-78.95
-81.03
-80.29
-76.19
-66.99
-51.81
-32.22
-12.40
2.83
10.62
11.50
8.98
7.79
11.31
19.69
29.91
37.10
36.63
25.82
5.06
-22.09
-49.75
-71.34
-81.52
-78.16
-63.48
-43.32
-24.78
-12.68
-7.36
-4.59
1.80
16.17
38.62
64.91
89.15
106.48
114.82
114.39
106.41
92.39
74.50
56.70
44.51
43.28
55.32
77.91
103.99
125.11
135.83
135.93
129.69
122.76
119.16
119.97
124.17
130.29
136.97
143.25
147.95
149.13
143.72
128.50
101.66
64.06
19.44
-27.21
-70.20
-104.49
-126.96
-137.31
-137.51
-130.42
-118.51
-103.31
-87.43
-72.58
-58.97
-45.91
-33.19
-21.40
-11.40
-4.13
-0.70
-6.19
-24.20
-54.08
-91.39
-130.84
-167.75
-198.07
-218.34
-226.37
-227.76
-227.96
-228.28
-226.51
-221.21
-213.25
-204.72
-197.80
-194.50
-204.21
-232.76
-277.79
-330.64
-383.53
-432.62
-476.19
-512.22
-489.31
-383.53
-217.82
-43.62
101.20
204.98
272.55
315.59
346.49
374.30
395.12
404.76
403.31
396.54
390.13
385.90
382.23
375.53
361.78
332.49
284.01
220.56
152.25
90.76
42.72
9.20
-12.58
-26.74
-40.32
-56.91
-74.96
-89.69
-97.72
-99.33
-97.03
-93.56
-90.57
-90.24
-93.20
-98.18
-102.60
-104.18
-101.65
-94.26
-81.71
-64.54
-45.19
-26.82
-12.19
-2.66
1.76
1.92
-0.81
-5.04
-9.76
-14.32
-18.29
-21.25
-22.75
-22.48
-20.58
-17.62
-14.47
-11.94
-10.52
-10.16
-10.25
-9.79
-7.73
-3.47
2.92
10.56
18.12
24.22
27.96
29.13
28.28
26.31
24.27
22.92
22.68
23.64
25.58
28.10
30.59
32.44
33.08
32.21
29.89
26.56
22.88
19.54
17.08
15.78
15.69
16.65
18.49
21.05
24.25
28.05
32.31
36.71
40.79
44.06
46.11
46.84
46.35
44.83
42.40
38.95
34.32
28.41
21.76
15.08
9.05
4.15
0.75
-1.03
-1.46
-1.09
-0.76
-1.13
-2.83
-6.34
-11.78
-18.64
-26.02
-33.11
-39.48
-45.27
-50.40
-55.19
-60.45
-66.91
-74.64
-83.26
-92.40
-101.83
-111.66
-120.28
-126.84
-132.22
-138.00
-144.96
-153.02
-162.05
-171.62
-181.64
-188.43
-190.34
-189.78
-190.77
-195.35
-202.64
-210.60
-215.93
-216.41
-205.01
-178.49
-140.21
-95.98
-48.99
0.56
52.19
105.82
159.64
219.32
287.44
359.29
427.23
486.37
535.44
573.59
602.23
571.87
465.48
315.31
170.82
58.15
-21.49
-69.77
-103.03
-129.57
-153.46
-168.18
-169.04
-162.86
-157.91
-159.10
-166.80
-179.83
-193.89
-205.05
-204.08
-185.83
-153.14
-112.71
-70.10
-28.05
11.24
47.21
78.49
107.21
134.17
157.22
173.91
183.73
188.02
187.75
184.05
177.13
168.88
160.76
152.85
144.83
136.84
129.43
122.82
117.31
112.81
109.81
108.61
108.96
110.47
112.88
116.05
119.57
123.00
125.56
126.25
123.82
116.94
104.59
86.54
63.89
39.17
15.98
-2.01
-12.02
-12.85
-4.77
11.02
32.97
59.49
88.74
118.37
145.38
166.64
179.51
182.63
176.20
161.66
141.15
116.80
90.37
63.04
35.57
8.40
-18.15
-43.73
-67.87
-89.95
-109.29
-125.30
-137.65
-146.34
-151.66
-154.07
-154.05
-151.96
-148.16
-143.02
-137.01
-130.69
-124.49
-118.62
-112.97
-107.27
-101.27
-94.93
-88.50
-82.32
-76.72
-71.80
-67.53
-63.86
-60.80
-58.50
-57.04
-56.30
-55.88
-55.20
-53.74
-51.25
-47.83
-43.87
-39.87
-36.25
-33.25
-30.95
-29.22
-27.91
-26.87
-25.99
-25.28
-24.77
-24.48
-24.34
-24.11
-23.46
-21.97
-19.37
-15.59
-10.89
-5.78
-0.99
2.82
5.11
5.67
4.55
2.05
-1.47
-5.64
-10.15
-14.81
-19.52
-24.30
-29.30
-34.79
-41.07
-48.38
-56.82
-66.25
-76.39
-86.95
-97.64
-108.22
-118.31
-127.29
-134.20
-137.91
-137.38
-131.92
-121.41
-106.35
-87.80
-67.16
-46.05
-26.12
-8.82
4.71
13.87
18.63
19.41
16.98
12.12
5.63
-1.55
-8.15
-12.49
-12.84
-7.85
2.78
18.04
35.81
53.40
68.31
78.95
84.81
86.39
84.81
81.37
77.23
73.24
69.85
67.07
64.45
61.04
55.77
47.71
36.53
22.77
7.80
-6.63
-18.96
-28.31
-34.68
-38.64
-40.97
-42.14
-42.30
-41.44
-39.71
-37.54
-35.55
-34.23
-33.69
-33.59
-33.33
-32.43
-30.65
-28.14
-25.22
-22.17
-19.05
-15.71
-11.87
-7.33
-2.12
3.38
8.57
12.81
15.60
16.77
16.57
15.52
14.30
13.53
13.59
14.59
16.40
18.67
20.97
22.89
24.11
24.55
24.36
23.92
23.66
23.85
24.38
24.71
23.97
21.30
16.15
8.53
-1.07
-11.87
-23.14
-34.39
-45.36
-55.84
-65.49
-73.71
-79.81
-83.06
-82.94
-79.18
-71.84
-61.34
-48.49
-34.45
-20.56
-8.04
2.31
10.25
16.08
20.43
24.01
27.43
31.11
35.33
40.16
45.47
50.88
55.69
59.17
60.59
59.47
55.68
49.42
41.18
31.67
21.65
11.83
2.80
-5.07
-11.54
-16.55
-20.12
-22.40
-23.70
-24.45
-25.08
-25.78
-26.28
-25.88
-23.62
-18.74
-11.08
-1.22
9.65
20.17
29.20
36.05
40.46
42.40
41.92
39.04
33.87
26.73
18.07
8.46
-1.67
-12.10
-22.73
-33.34
-43.40
-52.11
-58.66
-62.62
-64.24
-64.41
-64.24
-64.58
-65.55
-66.56
-66.64
-65.01
-61.52
-56.71
-51.55
-46.93
-43.34
-40.84
-39.27
-38.58
-38.97
-40.79
-44.29
-49.24
-54.93
-60.25
-64.15
-65.86
-65.17
-62.31
-57.77
-51.94
-44.95
-36.60
-26.50
-14.40
-0.43
14.80
30.30
45.01
58.14
69.35
78.81
86.84
93.64
98.98
102.23
102.61
99.59
93.30
84.56
74.71
65.13
56.75
49.74
43.64
37.63
30.93
23.02
13.61
2.44
-10.78
-26.21
-43.55
-61.78
-79.24
-94.15
-105.30
-112.51
-116.63
-118.98
-120.62
-121.70
-121.47
-118.57
-111.70
-100.07
-83.64
-63.00
-39.05
-12.80
14.73
42.43
69.02
93.01
112.94
127.74
137.09
141.60
142.59
141.70
140.27
138.97
137.77
136.20
133.80
130.36
126.04
121.15
115.94
110.42
104.37
97.50
89.64
80.85
71.40
61.64
51.79
41.89
31.77
21.20
10.17
-1.02
-11.70
-21.04
-28.29
-32.99
-35.09
-34.88
-32.89
-29.82
-26.51
-23.76
-22.17
-21.87
-22.34
-22.47
-20.92
-16.64
-9.35
0.34
11.15
21.57
30.36
36.82
40.73
42.24
41.60
39.09
34.92
29.34
22.71
15.47
8.18
1.43
-4.29
-8.69
-11.79
-13.83
-15.17
-16.14
-16.92
-17.58
-18.17
-18.85
-19.82
-21.27
-23.23
-25.48
-27.64
-29.35
-30.45
-31.10
-31.68
-32.67
-34.45
-37.23
-41.01
-45.56
-50.42
-54.82
-57.71
-57.92
-54.45
-46.85
-35.44
-21.30
-6.02
8.78
21.76
32.13
39.55
44.00
45.57
44.39
40.56
34.19
25.52
14.87
2.83
-9.85
-22.29
-33.64
-43.21
-50.56
-55.51
-58.05
-58.24
-56.21
-52.20
-46.63
-40.13
-33.40
-27.07
-21.65
-17.39
-14.42
-12.83
-12.65
-13.95
-16.76
-21.08
-26.92
-34.30
-43.10
-52.92
-62.81
-71.33
-76.64
-76.99
-71.27
-59.31
-42.02
-21.05
1.58
23.90
44.28
61.59
75.26
85.38
92.72
98.46
103.90
109.85
116.41
122.98
128.69
132.88
135.44
136.75
137.39
137.76
137.93
137.68
136.79
135.15
132.77
129.61
125.46
119.94
112.59
103.12
91.39
77.48
61.43
43.17
22.53
-0.66
-26.35
-54.07
-82.88
-111.45
-138.15
-161.34
-179.52
-191.60
-197.11
-196.36
-190.36
-180.51
-168.28
-154.71
-140.36
-125.33
-109.53
-93.06
-76.26
-59.66
-43.81
-29.12
-15.78
-3.82
6.89
16.52
25.31
33.55
41.43
49.09
56.48
63.39
69.46
74.25
77.32
78.36
77.24
74.12
69.29
63.19
56.17
48.43
40.15
31.51
22.99
15.31
9.38
6.01
5.63
8.17
13.04
19.20
25.42
30.35
32.80
31.93
27.48
19.96
10.50
0.73
-7.73
-13.60
-16.25
-15.71
-12.45
-7.24
-0.92
5.63
11.52
15.92
18.22
18.26
16.49
13.84
11.53
10.57
11.45
14.00
17.58
21.37
24.76
27.51
29.63
31.28
32.54
33.44
34.05
34.54
35.21
36.34
37.93
39.61
40.63
40.14
37.55
32.77
26.27
18.93
11.65
5.07
-0.73
-6.17
-12.02
-19.10
-27.94
-38.59
-50.47
-62.52
-73.38
-81.79
-86.90
-88.44
-86.76
-82.49
-76.26
-68.42
-59.06
-48.19
-36.01
-23.10
-10.38
1.22
10.98
18.53
23.88
27.21
28.79
28.89
27.93
26.51
25.38
25.17
26.22
28.27
30.58
32.06
31.77
29.23
24.61
18.57
11.98
5.45
-0.88
-7.37
-14.57
-22.85
-32.11
-41.68
-50.48
-57.43
-61.75
-63.26
-62.43
-60.21
-57.79
-56.26
-56.34
-57.85
-60.17
-62.39
-63.58
-62.84
-59.60
-53.68
-45.28
-34.68
-21.90
-7.21
8.56
23.96
37.20
46.50
50.62
49.23
42.93
33.60
22.69
10.52
-3.65
-20.94
-42.42
-68.72
-99.66
-134.05
-167.75
-196.91
-219.06
-232.75
-236.82
-230.74
-215.20
-192.31
-165.03
-132.60
-95.47
-56.00
-16.40
23.17
63.59
104.45
143.02
174.90
201.94
224.91
242.49
254.05
262.45
272.45
287.80
309.75
337.35
375.96
425.44
477.58
520.67
546.24
551.33
537.76
510.94
430.50
294.08
138.18
6.51
-83.09
-136.32
-166.22
-183.71
-195.34
-203.97
-203.00
-190.15
-170.95
-154.39
-146.46
-148.12
-156.88
-168.70
-179.47
-180.46
-168.56
-148.26
-127.30
-111.08
-100.92
-95.78
-94.17
-95.02
-94.12
-89.81
-83.78
-78.88
-76.71
-77.47
-80.57
-85.70
-92.62
-98.82
-102.31
-102.58
-99.08
-92.85
-84.76
-75.82
-67.14
-59.39
-51.82
-43.38
-33.35
-21.64
-8.88
3.93
15.53
24.80
31.35
35.65
38.66
41.24
43.61
45.09
44.91
42.70
38.80
34.40
30.94
29.56
30.57
33.36
36.60
38.96
39.51
37.90
34.33
29.26
23.20
16.62
10.03
3.89
-1.23
-4.92
-7.20
-8.46
-9.39
-10.68
-12.74
-15.57
-18.84
-21.90
-24.06
-24.63
-23.13
-19.54
-14.45
-9.08
-4.97
-3.36
-4.61
-7.97
-11.91
-14.85
-15.94
-15.31
-13.93
-12.86
-12.75
-13.61
-15.10
-16.82
-18.68
-20.86
-23.46
-26.26
-28.68
-30.02
-29.85
-28.18
-25.45
-22.41
-19.79
-17.86
-16.49
-15.13
-13.15
-10.16
-6.08
-1.14
4.07
8.78
12.57
15.18
16.72
17.14
16.03
13.04
8.15
1.50
-6.50
-14.77
-22.14
-27.12
-28.83
-27.61
-24.45
-20.50
-16.70
-14.67
-15.06
-17.69
-20.69
-22.15
-21.32
-18.24
-13.29
-7.63
-2.33
2.66
8.02
16.18
29.32
44.27
56.33
63.98
68.53
70.60
72.67
69.83
58.79
39.59
15.70
-9.46
-27.55
-31.18
-17.57
9.60
39.10
58.79
63.22
55.38
42.43
30.95
23.17
17.74
12.37
5.43
-1.89
-7.36
-9.54
-8.49
-5.01
-0.81
2.38
3.46
1.99
-0.74
-2.99
-3.67
-2.62
-0.03
3.51
7.45
11.98
16.99
23.11
30.88
39.43
46.34
48.59
43.22
28.65
5.68
-22.59
-51.36
-75.31
-91.06
-98.12
-97.28
-89.13
-73.53
-50.25
-20.79
10.99
40.61
62.83
74.21
74.62
67.04
55.55
43.72
33.07
23.66
14.90
6.44
-1.12
-6.50
-8.65
-7.58
-4.06
0.00
3.30
5.24
5.76
4.92
2.36
-2.56
-11.16
-23.74
-40.66
-60.07
-79.17
-95.42
-107.46
-115.39
-120.38
-123.49
-123.20
-118.91
-107.75
-87.67
-59.05
-25.54
6.54
29.83
37.93
28.86
-0.33
-46.99
-105.13
-165.69
-217.63
-250.08
-255.33
-231.29
-179.80
-112.96
-41.46
26.17
85.86
138.08
186.37
234.56
267.54
303.67
334.41
352.52
351.16
326.19
278.12
212.94
140.74
72.70
20.33
-14.38
-31.30
-33.86
-27.30
-16.74
-5.88
3.15
8.99
12.32
10.06
2.06
-10.58
-25.32
-38.25
-44.48
-39.70
-21.85
6.11
34.25
53.48
60.49
58.03
50.93
42.58
33.55
22.07
7.05
-10.73
-26.08
-32.30
-25.38
-7.10
15.12
30.77
30.39
9.91
-27.03
-69.91
-106.10
-126.50
-128.51
-115.71
-95.08
-73.90
-56.90
-45.50
-39.07
-36.03
-36.50
-40.82
-48.23
-54.04
-54.20
-47.75
-37.36
-27.30
-21.20
-20.87
-25.98
-34.59
-43.95
-51.37
-53.91
-48.50
-33.02
-8.10
22.29
51.66
73.60
84.63
85.04
78.61
70.34
63.81
59.77
56.66
52.40
46.07
38.38
30.84
24.88
21.15
19.48
18.95
18.74
18.38
17.68
16.65
15.32
13.82
12.38
11.33
10.90
11.29
12.55
14.72
17.67
21.27
25.45
30.16
35.32
40.73
46.08
50.96
55.05
58.05
60.08
61.66
63.40
65.81
68.89
72.15
74.55
76.32
77.18
77.03
75.99
74.33
72.38
70.42
68.70
67.22
65.67
63.03
58.03
49.55
37.26
22.06
5.95
-8.52
-19.15
-24.82
-25.88
-23.60
-19.56
-15.23
-11.55
-9.14
-8.27
-8.95
-10.79
-13.03
-14.50
-14.03
-10.96
-5.45
1.27
7.15
9.86
7.37
-1.45
-16.61
-37.03
-60.99
-86.51
-111.80
-135.36
-155.95
-172.51
-184.20
-190.54
-191.52
-187.84
-180.74
-171.94
-163.21
-155.98
-151.01
-148.24
-146.77
-145.19
-141.96
-135.89
-126.48
-114.19
-100.25
-86.30
-73.98
-64.38
-57.83
-53.94
-51.80
-50.45
-49.15
-47.72
-46.65
-46.99
-49.97
-56.42
-66.14
-77.56
-87.91
-94.04
-93.51
-85.59
-71.58
-54.25
-36.94
-22.49
-12.62
-7.98
-8.40
-13.28
-21.84
-33.09
-45.81
-58.72
-70.70
-80.91
-88.87
-94.23
-96.43
-94.54
-87.44
-74.27
-55.02
-30.89
-4.09
22.74
47.24
67.92
84.28
96.57
105.43
111.52
115.52
117.96
119.24
119.67
119.48
119.06
119.04
120.32
123.68
129.37
136.64
143.79
148.75
149.92
146.79
140.05
131.03
120.87
109.98
98.07
84.68
69.90
54.60
40.17
27.84
17.98
9.95
2.49
-5.54
-14.50
-23.83
-32.41
-39.11
-43.26
-44.69
-43.51
-39.89
-34.06
-26.37
-17.38
-7.80
1.77
11.02
19.86
28.18
35.59
41.43
45.02
46.19
45.45
43.92
42.86
43.05
44.48
46.25
47.13
45.95
42.07
35.60
27.24
18.01
8.85
0.37
-7.36
-14.67
-22.13
-30.17
-38.83
-47.79
-56.38
-63.94
-69.99
-74.49
-77.75
-80.28
-82.33
-83.71
-83.68
-81.18
-75.30
-65.76
-53.07
-38.42
-23.19
-8.52
5.10
17.76
29.77
41.18
51.39
59.35
64.02
65.01
62.98
59.34
55.63
52.70
50.28
47.26
42.41
35.30
26.59
17.77
10.43
5.49
2.81
1.34
-0.37
-3.62
-9.17
-17.09
-26.89
-37.70
-48.58
-58.80
-67.87
-75.42
-80.92
-83.46
-81.86
-75.06
-62.75
-45.69
-25.70
-5.15
13.79
29.65
41.96
50.96
57.29
61.63
64.54
66.47
67.78
68.74
69.54
70.19
70.53
70.32
69.34
67.48
64.88
61.97
59.25
57.20
55.88
54.82
53.08
49.67
44.02
36.28
27.27
17.97
9.01
0.28
-8.92
-19.40
-31.48
-44.73
-58.05
-70.20
-80.17
-87.43
-91.64
-92.42
-89.13
-81.09
-68.06
-50.73
-30.81
-10.72
7.18
21.34
31.43
38.17
42.70
45.96
48.28
49.56
49.66
48.88
47.91
47.42
47.54
47.55
46.23
42.53
36.35
28.74
21.45
16.07
13.17
12.08
11.37
9.65
6.35
1.85
-2.98
-7.41
-11.40
-15.57
-20.78
-27.44
-35.21
-43.07
-49.80
-54.54
-57.00
-57.42
-56.02
-52.59
-46.41
-36.61
-22.79
-5.48
13.80
33.06
50.61
65.63
78.30
89.29
99.16
107.85
114.72
119.03
120.55
119.83
117.97
116.09
114.72
113.60
111.87
108.63
103.42
96.47
88.53
80.46
72.76
65.34
57.62
48.92
38.82
27.44
15.33
3.27
-8.13
-18.54
-27.95
-36.55
-44.57
-52.25
-59.87
-67.79
-76.29
-85.45
-94.83
-103.48
-110.05
-113.17
-111.85
-105.85
-95.80
-83.03
-69.26
-56.00
-44.18
-33.96
-24.76
-15.53
-5.41
5.85
17.72
29.14
39.11
46.94
52.35
55.40
56.37
55.62
53.67
51.16
48.89
