1622758197.00
64.000000
-0.00
-0.00
-0.00
-0.00
-0.00
-0.00
-0.00
-0.00
-0.00
-0.00
0.00
0.01
0.01
-0.00
-0.03
-0.05
-0.05
0.00
0.13
0.36
0.66
1.01
1.37
1.72
2.06
2.40
2.79
3.24
3.80
4.42
5.06
5.66
6.20
6.68
7.15
7.68
8.31
9.14
10.09
11.04
11.88
12.56
13.14
13.76
14.65
15.96
17.91
20.32
22.90
25.38
27.58
29.57
31.68
34.32
37.81
42.54
48.15
54.10
59.83
64.97
69.58
74.14
79.34
85.71
93.76
103.00
112.62
121.73
129.77
136.75
143.30
150.75
157.77
166.64
177.95
191.79
206.97
220.57
228.25
225.36
208.53
176.87
132.76
80.05
23.07
-34.94
-92.44
-149.16
-205.23
-260.37
-313.74
-363.87
-409.83
-450.91
-486.50
-515.74
-537.23
-549.22
-549.96
-538.37
-514.21
-478.67
-433.88
-382.45
-327.02
-269.84
-212.63
-156.66
-102.95
-52.37
-5.90
35.58
71.43
101.35
125.50
144.38
158.69
169.15
176.37
180.75
182.57
182.07
179.51
175.23
169.65
163.18
156.15
148.81
141.30
133.69
126.02
118.33
110.69
103.16
95.80
88.68
81.83
75.25
68.95
62.95
57.25
51.86
46.78
42.03
37.59
33.45
29.61
26.07
22.81
19.83
17.11
14.67
12.48
10.54
8.83
7.35
6.07
4.97
4.05
3.27
2.62
2.09
1.65
1.30
1.01
0.79
0.61
0.47
0.37
0.28
0.23
0.18
0.15
0.13
0.13
0.13
0.15
0.17
0.19
0.23
0.27
0.31
0.36
0.41
0.46
0.52
0.57
0.62
0.68
0.74
0.80
0.86
0.93
1.00
1.08
1.17
1.27
1.38
1.51
1.66
1.82
2.00
2.21
2.44
2.70
2.98
3.30
3.65
4.03
4.44
4.90
5.38
5.91
6.48
7.10
7.78
8.52
9.29
10.07
10.84
11.61
12.37
13.19
14.08
15.11
16.26
17.52
18.82
20.12
21.37
22.56
23.63
24.54
25.21
25.46
25.13
24.03
22.01
19.01
15.09
10.40
5.22
-0.17
-5.58
-10.90
-16.10
-21.15
-25.88
-30.01
-33.16
-34.96
-35.23
-34.12
-32.08
-29.75
-27.73
-26.31
-25.43
-24.69
-23.58
-21.80
-19.47
-17.12
-15.51
-15.27
-16.56
-18.96
-21.62
-23.62
-24.39
-23.95
-22.82
-21.84
-21.78
-23.26
-26.78
-32.51
-39.81
-46.72
-50.07
-46.40
-33.58
-12.21
14.08
39.89
60.22
72.45
76.87
75.63
71.11
64.68
56.73
47.76
39.26
33.65
33.21
38.75
49.02
61.20
72.11
79.09
80.31
74.51
60.82
38.66
9.14
-24.79
-58.69
-87.96
-109.20
-121.11
-124.31
-120.64
-112.17
-100.70
-87.86
-75.24
-64.24
-55.72
-49.60
-45.12
-41.22
-37.27
-33.38
-30.26
-28.72
-29.13
-31.18
-34.01
-36.46
-37.43
-36.06
-31.91
-24.86
-15.09
-2.84
11.75
28.60
47.63
68.36
89.69
109.74
125.98
135.73
136.85
128.46
111.43
88.25
62.57
38.09
17.64
2.49
-7.74
-14.54
-19.65
-24.45
-29.52
-34.88
-40.12
-44.83
-48.66
-51.35
-52.71
-52.61
-51.06
-48.24
-44.58
-40.59
-36.85
-33.75
-31.29
-28.88
-25.36
-19.40
-10.09
2.37
16.31
28.94
37.49
40.56
39.10
36.15
35.43
39.49
48.33
59.42
69.03
73.94
72.85
66.36
56.31
44.59
32.53
20.72
9.25
-2.11
-13.76
-26.27
-40.01
-54.78
-69.53
-82.55
-92.17
-97.39
-98.13
-95.03
-88.96
-80.67
-71.03
-61.34
-53.33
-48.80
-48.67
-52.30
-57.50
-61.39
-61.57
-57.13
-48.82
-38.30
-27.24
-16.63
-6.75
2.36
10.31
16.23
19.36
19.59
17.89
16.07
15.96
18.89
25.51
36.21
51.69
72.77
99.74
131.35
164.02
192.57
211.84
218.52
212.19
194.85
169.69
139.53
106.39
71.75
36.74
2.20
-31.27
-62.96
-91.40
-114.24
-129.24
-135.87
-136.98
-138.66
-147.76
-168.18
-197.93
-228.91
-250.08
-252.25
-232.14
-193.47
-144.76
-95.62
-53.33
-21.37
0.05
12.50
18.03
18.53
15.86
12.29
10.71
14.03
24.15
41.20
63.48
88.27
113.18
137.14
160.48
183.98
207.66
230.02
248.26
259.21
260.53
251.40
232.64
206.16
174.42
139.83
104.30
68.86
33.53
-2.36
-39.21
-76.19
-110.91
-140.47
-162.94
-178.58
-189.44
-197.53
-202.86
-202.98
-194.69
-176.83
-152.06
-126.03
-104.33
-89.04
-77.60
-64.88
-47.01
-24.50
-2.40
12.72
16.57
9.43
-4.34
-18.82
-29.33
-33.51
-30.94
-21.91
-7.00
12.38
33.41
52.29
65.90
73.52
77.71
83.07
93.87
111.76
135.06
160.04
182.79
200.64
212.26
216.61
212.12
197.02
170.74
135.31
95.60
57.77
26.70
3.93
-12.47
-26.12
-39.78
-53.48
-64.82
-70.76
-69.88
-63.26
-53.82
-44.60
-37.09
-30.65
-23.07
-12.14
2.99
20.97
38.39
50.70
53.66
44.88
24.61
-4.20
-36.64
-67.51
-92.66
-109.72
-118.24
-119.35
-115.44
-109.90
-106.06
-105.55
-107.10
-106.69
-99.77
-84.18
-61.54
-36.13
-11.80
10.71
33.86
60.05
87.62
109.45
115.87
100.79
66.71
24.71
-11.33
-32.41
-39.10
-39.74
-43.71
-54.82
-69.31
-79.83
-81.58
-75.91
-68.68
-64.48
-61.61
-52.04
-26.84
16.96
72.43
125.41
161.41
172.58
160.22
132.23
97.75
62.47
28.07
-5.45
-36.24
-59.69
-70.59
-66.77
-51.87
-34.44
-23.54
-23.46
-31.12
-37.67
-33.92
-16.51
9.33
32.40
41.71
32.86
10.58
-13.90
-28.69
-26.70
-8.10
21.47
54.87
87.10
116.63
144.75
173.33
203.22
232.54
256.08
266.88
259.03
230.77
185.34
129.78
71.96
18.30
-27.87
-66.05
-96.73
-119.99
-135.69
-145.20
-151.89
-159.51
-168.38
-174.62
-172.44
-157.71
-130.23
-94.28
-56.84
-24.38
-5.45
-5.26
-20.46
-41.88
-62.47
-80.49
-96.63
-111.41
-124.12
-132.81
-135.27
-130.24
-118.89
-104.29
-89.48
-76.51
-66.06
-57.86
-50.38
-41.55
-29.63
-14.15
4.28
25.10
48.60
75.95
103.86
129.63
150.16
162.51
164.63
156.33
139.90
119.40
98.97
81.14
67.02
56.11
47.36
39.89
33.30
27.68
23.22
19.75
16.66
13.72
10.81
8.16
6.25
5.36
5.44
6.04
6.34
5.39
2.87
-1.17
-6.18
-11.24
-15.43
-18.15
-19.18
-18.72
-17.13
-14.62
-11.39
-7.63
-3.74
-0.35
1.94
2.73
2.04
0.24
-2.19
-4.95
-8.04
-11.61
-15.68
-20.05
-24.34
-28.28
-31.75
-34.70
-36.83
-37.49
-35.85
-31.48
-24.86
-17.42
-11.08
-7.33
-6.46
-7.49
-8.72
-8.67
-6.88
-3.93
-1.04
0.72
0.91
-0.24
-2.15
-4.45
-7.13
-10.43
-14.58
-19.51
-24.77
-29.73
-33.78
-36.42
-37.28
-36.12
-32.86
-27.68
-21.14
-14.13
-7.64
-2.46
1.05
3.03
3.88
4.07
3.90
3.48
2.88
2.21
1.59
1.19
1.02
0.97
0.74
0.11
-0.98
-2.33
-3.60
-4.43
-4.58
-4.01
-2.90
-1.52
-0.26
0.45
0.22
-1.17
-3.60
-6.58
-9.36
-11.22
-11.79
-11.30
-10.56
-10.70
-12.73
-17.07
-23.29
-30.36
-36.96
-42.00
-45.03
-46.02
-45.23
-42.79
-38.73
-33.00
-25.58
-16.57
-6.08
5.79
18.98
33.42
49.07
66.09
84.90
106.01
129.55
154.73
179.68
201.84
218.81
229.21
232.92
230.85
224.24
213.93
200.27
183.40
163.69
141.86
118.80
95.26
71.75
48.87
27.59
9.29
-4.72
-14.00
-19.34
-22.43
-24.94
-27.36
-28.42
-25.71
-17.15
-2.65
15.19
31.67
41.90
42.79
34.18
18.57
-0.18
-18.62
-34.94
-49.02
-61.86
-74.74
-88.82
-105.00
-123.91
-145.44
-168.34
-190.01
-207.19
-217.52
-220.92
-220.08
-219.52
-223.46
-233.78
-248.94
-264.62
-275.56
-277.32
-267.43
-245.49
-212.80
-172.06
-127.32
-83.70
-46.43
-19.28
-2.94
5.20
9.44
13.12
16.68
17.79
13.97
5.63
-2.43
-2.78
10.35
36.65
68.16
92.19
97.25
78.96
42.37
-0.91
-38.59
-63.46
-75.28
-78.84
-79.89
-81.79
-84.75
-87.34
-88.26
-86.75
-81.92
-71.79
-53.73
-26.80
5.68
35.32
51.22
44.97
15.45
-29.82
-77.08
-111.71
-123.64
-110.23
-76.00
-29.71
18.97
61.99
94.12
112.99
118.70
113.31
100.21
83.39
66.77
53.69
46.87
48.40
59.52
79.89
106.53
133.71
154.29
162.48
156.79
141.42
124.83
115.77
118.78
131.54
145.67
150.57
138.51
108.24
65.61
20.68
-16.88
-41.70
-54.30
-59.70
-64.16
-72.04
-84.05
-97.65
-108.87
-114.38
-113.19
-106.80
-98.23
-90.27
-84.11
-78.89
-72.18
-61.41
-45.01
-23.08
2.88
30.80
58.92
86.04
111.28
133.42
150.45
159.75
158.77
145.81
120.34
83.13
36.17
-17.47
-73.96
-129.15
-179.01
-220.06
-249.62
-265.86
-267.85
-255.68
-230.55
-194.61
-150.54
-100.86
-47.15
9.92
69.73
130.46
187.96
236.26
269.69
285.76
287.10
280.85
276.03
279.58
293.12
312.10
327.86
331.00
314.75
277.06
220.97
153.63
84.43
22.75
-24.31
-53.50
-65.84
-65.57
-58.08
-47.99
-38.09
-29.66
-23.37
-20.12
-20.74
-25.31
-32.50
-39.65
-43.90
-43.62
-39.25
-33.15
-28.43
-27.88
-32.75
-42.33
-54.45
-66.42
-76.15
-82.85
-87.08
-90.26
-93.79
-98.39
-103.84
-109.26
-113.61
-116.15
-116.59
-114.92
-111.34
-106.11
-99.64
-92.47
-85.26
-78.49
-72.24
-66.12
-59.44
-51.57
-42.17
-31.32
-19.41
-6.88
6.13
19.66
33.66
47.63
60.42
70.47
76.40
77.65
74.84
69.63
64.03
59.62
56.98
55.67
54.67
53.03
50.27
46.55
42.51
38.83
35.97
34.00
32.61
31.35
29.77
27.68
25.24
22.93
21.24
20.36
20.04
19.63
18.41
15.94
12.31
8.06
3.89
0.32
-2.45
-4.43
-5.67
-6.06
-5.40
-3.55
-0.68
2.68
5.88
8.34
9.77
10.17
9.78
8.92
7.78
6.44
4.95
3.34
1.79
0.52
-0.26
-0.43
-0.12
0.36
0.62
0.34
-0.51
-1.70
-2.85
-3.64
-3.99
-4.13
-4.36
-4.87
-5.60
-6.20
-6.34
-5.90
-5.13
-4.56
-4.74
-6.00
-8.30
-11.32
-14.56
-17.53
-19.81
-21.07
-21.08
-19.76
-17.30
-14.12
-10.79
-7.78
-5.35
-3.45
-1.90
-0.56
0.52
1.24
1.50
1.38
1.05
0.68
0.34
-0.06
-0.65
-1.47
-2.45
-3.34
-3.88
-3.85
-3.18
-1.94
-0.33
1.28
2.52
3.08
2.86
1.98
0.80
-0.27
-0.95
-1.21
-1.28
-1.56
-2.36
-3.84
-5.83
-7.97
-9.82
-11.02
-11.38
-10.93
-9.78
-8.09
-5.91
-3.27
-0.21
3.11
6.34
9.04
10.85
11.61
11.48
10.78
9.91
9.10
8.42
7.81
7.21
6.62
6.08
5.64
5.22
4.65
3.73
2.41
0.81
-0.81
-2.16
-3.15
-3.81
-4.37
-5.06
-5.94
-6.94
-7.90
-8.72
-9.42
-10.16
-11.17
-12.62
-14.47
-16.51
-18.35
-19.62
-20.02
-19.48
-18.09
-16.05
-13.55
-10.72
-7.63
-4.40
-1.24
1.64
4.02
5.83
7.17
8.16
8.92
9.47
9.70
9.60
9.21
8.70
8.24
7.86
7.45
6.81
5.84
4.61
3.37
2.40
1.87
1.74
1.84
1.89
1.64
0.99
-0.08
-1.52
-3.18
-4.97
-6.75
-8.45
-10.07
-11.63
-13.18
-14.69
-16.02
-17.00
-17.37
-17.00
-15.84
-14.01
-11.71
-9.19
-6.65
-4.25
-2.16
-0.45
0.81
1.64
2.11
2.35
2.52
2.73
3.06
3.49
3.94
4.35
4.61
4.72
4.75
4.81
5.02
5.44
6.03
6.61
6.96
6.87
6.27
5.27
4.12
3.11
2.47
2.18
2.07
1.83
1.14
-0.24
-2.42
-5.35
-8.77
-12.20
-15.05
-16.72
-16.80
-15.25
-12.40
-8.84
-5.20
-1.93
0.81
3.03
4.87
6.36
7.55
8.44
9.19
10.02
11.11
12.45
13.79
14.64
14.53
13.27
11.09
8.61
6.57
5.51
5.55
6.35
7.30
7.88
7.91
7.52
7.02
6.67
6.49
6.29
5.80
4.86
3.54
2.04
0.62
-0.56
-1.50
-2.33
-3.24
-4.43
-6.03
-8.15
-10.80
-13.86
-17.02
-19.84
-21.81
-22.48
-21.63
-19.35
-16.00
-12.08
-8.13
-4.59
-1.77
0.17
1.20
1.54
1.57
1.81
2.71
4.34
6.41
8.23
9.14
8.75
7.19
5.09
3.20
2.17
2.17
2.96
3.99
4.72
4.79
4.18
3.09
1.81
0.60
-0.46
-1.37
-2.23
-3.07
-3.87
-4.51
-4.88
-4.95
-4.75
-4.42
-4.11
-4.00
-4.25
-4.99
-6.33
-8.27
-10.73
-13.41
-15.86
-17.53
-17.99
-17.05
-14.88
-11.98
-8.94
-6.20
-3.91
-1.87
0.25
2.72
5.59
8.65
11.46
13.60
14.77
14.92
14.23
13.02
11.65
10.37
9.33
8.59
8.13
7.95
7.99
8.12
8.17
7.97
7.41
6.51
5.38
4.10
2.68
1.14
-0.48
-2.00
-3.18
-3.84
-4.00
-3.96
-4.10
-4.69
-5.76
-7.10
-8.46
-9.70
-10.93
-12.35
-14.04
-15.83
-17.23
-17.65
-16.68
-14.24
-10.70
-6.64
-2.68
0.74
3.45
5.49
7.00
8.11
8.91
9.42
9.69
9.79
9.80
9.78
9.69
9.48
9.08
8.50
7.85
7.34
7.10
7.18
7.47
7.74
7.78
7.40
6.58
5.39
4.00
2.54
1.13
-0.21
-1.49
-2.67
-3.75
-4.66
-5.36
-5.90
-6.39
-7.04
-8.04
-9.49
-11.34
-13.43
-15.49
-17.25
-18.47
-18.96
-18.60
-17.32
-15.19
-12.31
-8.90
-5.26
-1.66
1.60
4.35
6.51
8.15
9.44
10.56
11.60
12.54
13.24
13.53
13.36
12.82
12.22
11.85
11.92
12.44
13.24
14.06
14.66
14.98
15.05
15.01
14.90
14.70
14.30
13.59
12.61
11.53
10.62
10.12
10.08
10.35
10.64
10.65
10.27
9.57
8.84
8.37
8.42
9.06
10.32
12.15
14.54
17.49
20.98
24.92
29.11
33.29
37.06
39.93
41.40
41.19
39.40
36.54
33.39
30.55
28.09
25.40
21.36
14.67
4.35
-9.99
-27.97
-48.39
-69.37
-88.61
-104.00
-114.12
-118.64
-118.34
-114.56
-108.51
-100.93
-92.17
-82.65
-73.17
-64.75
-57.94
-52.43
-47.21
-41.39
-35.02
-29.05
-24.38
-20.83
-16.48
-8.52
5.17
24.52
47.01
68.79
86.78
100.40
111.90
125.21
143.73
168.45
197.37
226.09
249.56
263.66
266.09
255.99
233.06
197.14
149.07
92.83
36.85
-7.23
-28.57
-22.60
5.26
40.24
63.84
62.00
31.66
-18.23
-71.33
-112.14
-132.91
-135.77
-129.43
-123.20
-121.73
-123.84
-125.17
-122.07
-114.28
-104.52
-95.42
-86.90
-75.92
-59.41
-38.00
-17.38
-5.81
-9.16
-26.51
-49.30
-65.03
-63.71
-43.06
-9.89
23.27
44.06
45.40
27.51
-3.28
-38.24
-69.70
-93.23
-107.82
-115.04
-117.24
-116.49
-113.80
-109.34
-102.81
-93.56
-80.77
-64.05
-44.46
-25.15
-10.62
-4.81
-8.39
-17.18
-22.84
-16.47
6.72
44.43
87.83
125.64
149.36
156.33
149.11
132.03
107.62
75.69
35.49
-11.24
-58.80
-99.00
-124.36
-131.52
-122.16
-101.55
-75.56
-48.40
-21.92
3.80
29.45
55.91
83.76
112.53
139.76
160.45
168.40
158.90
131.60
91.70
48.11
9.75
-17.89
-33.78
-39.93
-39.16
-33.65
-25.94
-20.09
-21.52
-34.82
-60.48
-92.99
-122.00
-136.82
-131.75
-109.50
-79.42
-52.72
-37.01
-33.49
-37.46
-41.68
-40.29
-31.00
-15.88
1.77
19.96
38.92
60.26
84.85
111.32
135.40
150.60
148.38
123.67
77.88
19.45
-38.84
-84.72
-110.61
-115.34
-102.80
-82.18
-60.92
-42.84
-29.35
-22.91
-29.18
-55.03
-103.58
-169.82
-244.17
-311.43
-356.77
-372.44
-361.34
-335.70
-310.50
-296.12
-268.89
-211.36
-119.99
-9.39
98.31
186.71
249.53
289.39
314.09
332.14
344.96
351.16
349.10
338.51
321.77
302.54
284.55
270.99
263.60
258.98
253.00
242.96
227.93
209.35
189.64
171.17
155.59
143.08
129.95
111.09
88.17
62.18
35.36
10.43
-10.05
-24.21
-31.32
-32.96
-31.37
-28.47
-26.00
-24.26
-22.51
-19.54
-14.28
-6.45
2.79
11.55
18.01
20.55
19.07
14.84
9.72
5.17
1.16
-4.16
-13.79
-30.62
-56.39
-90.42
-130.05
-172.06
-214.01
-254.75
-293.88
-330.89
-364.81
-394.64
-419.88
-440.47
-455.83
-463.73
-459.73
-438.22
-394.64
-328.51
-245.16
-155.18
-71.02
-2.44
46.83
79.51
101.59
117.85
128.75
130.61
119.02
93.15
58.58
26.15
7.63
10.44
34.36
72.12
113.14
148.19
172.52
186.17
192.12
193.87
193.49
191.16
186.44
180.12
175.62
178.80
195.75
229.36
276.83
329.38
375.16
403.57
409.28
393.38
361.84
321.89
278.66
233.76
185.79
132.06
70.42
0.26
-76.84
-156.84
-233.40
-298.74
-345.17
-367.36
-363.89
-337.68
-294.85
-242.58
-187.26
-133.70
-85.17
-44.07
-12.13
10.12
24.03
33.08
41.93
54.61
72.35
92.60
109.74
117.37
111.60
93.16
67.16
40.78
19.69
5.24
-5.84
-19.70
-42.56
-78.36
-127.61
-187.51
-252.56
-315.44
-368.16
-403.71
-418.00
-411.41
-388.63
-357.01
-323.71
-293.36
-267.19
-243.91
-221.60
-199.06
-176.19
-153.34
-130.31
-105.70
-77.26
-42.85
-1.55
45.48
95.02
142.56
183.56
214.16
231.46
233.17
217.64
184.60
136.37
78.91
21.14
-27.57
-60.86
-77.90
-83.29
-84.27
-86.81
-92.67
-99.01
-100.67
-93.37
-75.61
-48.91
-16.21
19.96
58.31
98.16
138.56
177.82
214.21
247.35
278.91
311.98
349.10
389.92
430.21
462.82
480.37
478.32
456.73
419.82
373.92
324.87
276.25
229.31
184.00
140.44
99.61
62.96
31.30
3.81
-22.49
-52.26
-90.32
-139.50
-198.49
-261.18
-317.87
-357.98
-373.34
-360.66
-322.49
-266.16
-201.80
-139.61
-88.24
-53.73
-38.59
-41.49
-57.56
-80.12
-102.97
-122.81
-139.92
-158.06
-182.11
-214.60
-253.07
-289.66
-314.11
-317.73
-296.52
-251.19
-186.66
-110.39
-30.24
46.74
114.44
166.92
198.98
208.17
198.21
177.69
156.79
143.64
142.10
151.35
166.99
183.16
188.24
174.97
145.42
108.99
74.14
44.44
20.27
1.41
-11.59
-17.14
-12.29
4.30
29.88
57.05
76.13
78.82
61.71
28.21
-15.11
-54.48
-76.39
-73.88
-49.14
-11.11
29.44
64.26
88.96
102.34
104.97
96.10
73.41
35.05
-17.54
-78.73
-140.06
-192.93
-230.94
-250.60
-252.15
-238.66
-214.61
-184.11
-149.81
-112.74
-72.84
-29.58
17.80
69.38
124.14
179.54
231.46
274.38
302.32
310.38
296.59
263.17
216.21
164.45
116.36
77.60
49.58
30.31
16.85
7.96
4.99
10.45
24.81
43.92
59.33
61.86
46.57
15.90
-21.28
-54.29
-76.05
-85.83
-87.93
-87.28
-85.54
-80.10
-66.68
-43.43
-13.44
16.16
37.68
46.77
44.49
36.32
28.97
27.02
31.18
38.69
45.22
47.26
43.91
37.14
30.37
26.60
26.81
29.45
31.57
30.58
25.86
19.14
13.40
10.98
12.10
14.69
15.73
13.03
6.63
-1.43
-8.34
-12.38
-13.85
-14.85
-17.93
-24.62
-34.69
-46.42
-57.46
-65.89
-70.60
-71.20
-67.64
-60.21
-49.98
-39.17
-31.12
-29.11
-34.79
-46.94
-61.46
-72.84
-76.54
-70.98
-58.12
-42.28
-28.06
-18.27
-13.12
-10.84
-9.00
-6.01
-1.60
3.39
7.70
10.21
10.21
7.47
2.21
-4.85
-12.38
-18.64
-21.82
-20.95
-16.38
-10.05
-4.83
-3.44
-7.24
-15.50
-25.64
-34.29
-38.53
-36.96
-29.97
-19.41
-7.72
2.86
10.74
15.13
15.79
12.74
6.19
-3.38
-14.87
-26.46
-35.81
-40.70
-39.95
-34.15
-25.79
-18.43
-15.31
-17.92
-25.30
-34.51
-41.92
-44.99
-43.18
-38.07
-32.51
-29.36
-30.55
-36.41
-45.69
-55.82
-63.61
-66.05
-61.11
-48.24
-28.35
-3.40
24.42
53.15
81.27
107.32
129.46
145.16
151.76
147.31
131.66
106.86
76.82
46.19
19.07
-2.00
-16.43
-25.20
-30.02
-32.61
-34.08
-34.67
-33.98
-31.38
-26.54
-19.83
-12.46
-6.00
-1.81
-0.43
-1.38
-3.46
-5.22
-5.50
-3.56
0.95
8.28
18.52
31.38
45.73
59.37
69.24
72.36
67.16
54.50
37.94
22.73
13.77
13.45
20.48
30.22
36.59
34.52
22.16
1.74
-21.46
-41.17
-52.54
-53.73
-46.24
-34.16
-22.90
-18.00
-23.95
-43.00
-73.91
-111.25
-146.12
-168.61
-171.25
-152.23
-116.21
-72.30
-30.00
4.19
27.72
40.66
43.79
37.73
23.36
2.83
-20.31
-41.99
-59.08
-70.00
-74.13
-70.59
-57.65
-33.19
4.09
53.61
112.61
176.77
241.02
300.01
348.35
381.20
395.33
390.48
369.77
338.71
303.46
269.00
238.09
211.10
186.86
163.59
139.76
114.56
87.96
60.52
33.01
5.88
-21.10
-48.80
-78.72
-112.92
-153.79
-203.32
-261.68
-325.88
-389.24
-442.57
-476.96
-487.03
-473.07
-441.03
-399.93
-358.50
-322.28
-292.71
-268.19
-245.99
-223.91
-200.89
-176.73
-151.39
-124.67
-96.37
-66.48
-35.35
-3.40
29.47
64.63
104.74
152.58
209.09
271.38
332.14
381.35
409.58
411.80
389.44
349.50
301.53
253.56
209.35
168.02
125.92
79.40
26.78
-31.04
-91.29
-150.29
-203.95
-247.98
-278.15
-291.52
-287.98
-271.35
-248.90
-228.93
-217.45
-215.64
-219.57
-222.37
-217.66
-202.27
-177.02
-145.29
-110.82
-75.84
-40.89
-5.53
30.70
67.89
106.21
146.37
189.46
235.89
284.15
330.17
367.89
391.20
396.22
383.02
355.46
319.52
280.66
242.00
203.82
164.67
123.07
78.78
32.94
-12.69
-56.63
-98.04
-136.44
-171.06
-200.86
-224.72
-242.29
-254.16
-261.44
-264.81
-264.00
-257.91
-245.56
-226.93
-202.97
-175.07
-144.21
-110.96
-76.19
-41.88
-11.09
13.26
30.03
40.75
48.97
58.31
70.57
85.07
99.51
111.69
120.82
127.55
133.00
137.68
141.11
142.37
140.91
137.07
131.95
126.73
122.23
118.75
116.18
114.38
113.18
112.50
112.42
113.17
115.13
118.68
123.76
129.65
134.95
137.99
137.36
132.42
123.34
110.60
94.42
74.50
50.29
21.86
-9.45
-40.95
-69.37
-92.22
-108.74
-119.97
-127.79
-133.59
-137.55
-138.63
-135.68
-128.45
-118.01
-106.13
-94.34
-83.33
-73.12
-63.60
-55.06
-48.00
-42.61
-38.24
-33.54
-27.15
-18.52
-8.28
2.19
11.63
19.50
26.33
33.27
41.67
52.75
67.28
85.39
106.02
126.72
144.04
154.69
156.79
150.54
137.84
121.27
102.84
83.48
63.10
40.97
15.86
-13.76
-49.29
-90.90
-136.51
-181.56
-220.21
-247.66
-262.20
-265.62
-261.75
-253.82
-242.58
-226.36
-202.54
-169.58
-127.75
-78.47
-23.12
37.19
100.41
161.88
214.11
249.07
262.08
254.93
236.02
216.73
206.04
206.17
211.87
213.44
202.04
174.20
133.52
89.02
51.19
28.09
22.89
33.85
55.87
82.74
108.98
130.53
144.72
150.03
146.02
133.60
115.04
93.36
71.07
48.72
24.41
-5.27
-43.36
-90.68
-145.42
-203.78
-261.24
-313.52
-357.08
-389.41
-409.52
-418.23
-418.01
-411.79
-401.26
-385.46
-361.10
-323.92
-270.82
-201.40
-118.42
-27.43
63.97
146.77
211.85
252.23
266.04
258.44
240.75
226.20
224.51
237.73
260.13
281.85
294.02
292.52
278.18
254.41
224.27
189.05
149.12
105.57
61.35
20.70
-12.57
-36.81
-52.96
-63.77
-72.30
-80.77
-90.17
-100.49
-111.19
-121.44
-130.46
-137.94
-144.60
-152.21
-162.79
-177.29
-194.36
-210.23
-219.74
-218.28
-203.19
-174.26
-133.01
-81.87
-24.01
35.85
90.65
131.52
150.21
142.77
112.34
69.08
26.84
-2.14
-11.70
-3.64
14.22
31.93
41.57
39.51
26.11
3.91
-24.57
-58.02
-96.16
-138.89
-185.53
-234.70
-284.57
-333.05
-377.59
-414.88
-440.96
-451.98
-445.51
-421.71
-383.45
-335.60
-283.58
-232.00
-184.10
-141.72
-105.63
-75.67
-50.66
-28.33
-5.77
19.59
49.03
81.95
116.33
149.72
180.52
208.73
235.98
264.71
297.27
335.04
378.04
424.65
471.66
514.80
549.73
573.32
584.90
586.48
581.89
574.63
565.82
553.02
531.12
494.86
441.82
374.20
298.35
222.21
152.18
91.22
38.82
-7.21
-48.82
-86.58
-120.05
-149.09
-174.71
-198.86
-223.28
-247.88
-270.38
-287.23
-295.40
-293.66
-282.44
-262.50
-233.52
-194.10
-142.95
-81.29
-14.41
48.54
97.25
124.16
127.07
109.25
76.51
34.61
-12.39
-61.73
-109.80
-150.68
-176.29
-179.33
-156.56
-111.72
-52.40
13.73
81.74
149.52
215.78
277.68
329.14
362.60
370.09
349.62
306.87
252.14
194.96
140.67
90.50
42.84
-3.36
-50.50
-97.13
-138.47
-169.99
-191.06
-205.52
-219.19
-238.64
-268.40
-314.18
-375.35
-443.68
-506.52
-552.80
-576.49
-576.69
-557.87
-497.97
-395.43
-270.67
-151.58
-54.46
17.91
65.85
97.73
119.81
138.52
156.20
176.79
204.30
240.62
282.13
319.92
344.27
347.19
326.47
282.79
223.43
160.28
105.02
64.07
37.40
21.29
10.30
0.41
-12.79
-31.49
-56.05
-86.62
-124.72
-172.49
-230.13
-294.48
-358.07
-411.88
-446.86
-456.84
-440.73
-403.17
-352.40
-296.78
-242.23
-190.90
-142.34
-94.31
-44.08
10.48
69.90
132.25
193.01
245.42
282.36
298.55
292.56
267.29
229.05
185.60
144.51
112.17
93.36
90.73
103.65
127.29
152.98
170.81
173.35
159.10
133.38
105.78
85.68
77.79
80.46
87.48
92.02
90.45
83.42
74.20
65.51
57.28
46.79
30.95
9.07
-15.99
-38.77
-53.84
-58.40
-53.51
-43.66
-34.73
-31.25
-34.36
-41.17
-45.95
-42.47
-26.76
1.40
38.45
78.77
116.93
149.63
176.09
197.25
214.30
227.35
235.01
234.86
224.36
201.97
167.94
124.49
75.70
26.15
-20.76
-64.01
-105.49
-149.08
-199.30
-259.19
-328.51
-402.60
-472.67
-527.92
-558.90
-561.09
-536.54
-493.04
-440.70
-387.68
-337.46
-288.64
-237.19
-179.26
-113.52
-42.04
30.15
96.10
148.29
180.11
187.72
171.89
138.67
97.62
58.56
27.67
5.52
-12.33
-31.88
-56.75
-85.75
-113.11
-131.42
-135.25
-123.86
-101.67
-76.35
-55.71
-44.56
-43.37
-48.68
-55.15
-57.96
-54.51
-45.03
-31.41
-15.55
1.97
21.88
45.36
72.84
103.39
134.95
165.08
191.75
213.36
228.52
235.66
233.58
221.82
201.12
173.21
140.08
103.59
65.45
27.58
-7.75
-38.19
-62.05
-78.76
-88.86
-93.32
-92.77
-87.08
-75.73
-58.37
-35.08
-6.29
27.58
66.28
109.25
155.01
200.91
243.65
280.30
309.01
329.28
341.52
346.67
346.10
341.89
336.80
333.67
334.12
337.30
339.61
335.82
321.26
294.01
255.78
211.13
165.26
121.91
82.27
45.33
9.26
-27.29
-64.84
-103.50
-143.46
-184.49
-225.05
-261.45
-288.49
-301.43
-298.33
-280.91
-253.40
-220.26
-184.30
-146.73
-109.06
-75.20
-51.79
-46.45
-64.61
-106.92
-168.44
-240.03
-310.90
-371.19
-413.70
-434.90
-435.10
-417.97
-389.21
-354.68
-318.76
-283.75
-250.33
-218.87
-190.10
-164.93
-143.51
-124.38
-104.49
-80.29
-49.04
-9.40
38.35
92.43
149.52
204.85
252.56
286.88
303.81
302.66
286.17
259.35
227.17
192.51
155.41
114.16
67.39
15.91
-36.60
-84.45
-121.65
-143.56
-147.68
-133.82
-103.67
-60.41
-8.26
47.83
102.53
150.88
189.26
216.29
233.29
243.93
253.03
264.92
281.77
302.68
323.89
340.17
346.96
342.45
328.88
312.19
300.04
298.53
309.30
328.22
346.78
355.26
346.70
319.52
277.67
228.41
178.97
134.09
95.07
60.82
29.31
-1.29
-32.46
-65.75
-102.48
-142.58
-183.46
-219.96
-246.03
-257.80
-255.95
-246.29
-237.86
-239.68
-257.77
-293.69
-344.54
-404.10
-464.05
-515.42
-550.02
-562.23
-550.69
-518.86
-474.04
-424.92
-378.73
-339.27
-306.82
-279.15
-253.03
-225.39
-193.61
-155.31
-108.22
-50.90
15.94
88.29
158.90
218.99
261.20
282.33
284.38
273.33
256.41
239.16
223.93
210.21
196.27
180.91
164.26
147.46
131.61
116.87
102.46
87.29
71.01
54.69
40.83
32.52
31.86
38.40
48.76
57.68
60.31
54.55
42.21
28.26
18.69
17.99
27.63
46.25
70.92
98.66
127.25
155.09
180.24
199.77
209.80
206.71
188.89
158.13
119.71
81.23
50.52
33.48
32.83
47.77
74.60
107.95
142.10
172.18
194.92
208.87
213.75
209.77
196.88
174.67
143.07
103.06
57.00
8.26
-39.61
-83.61
-121.61
-152.41
-175.96
-193.99
-210.71
-232.37
-265.12
-311.77
-369.11
-427.65
-474.71
-499.17
-496.09
-468.20
-423.89
-373.02
-322.84
-276.15
-232.02
-187.97
-141.77
-91.95
-37.72
21.39
84.73
149.38
209.60
258.03
288.16
296.89
285.73
259.78
225.26
187.06
147.70
108.20
69.63
34.36
5.74
-13.12
-21.04
-19.39
-11.32
-0.20
11.67
23.08
32.85
38.14
34.00
14.74
-23.08
-77.78
-141.47
-201.72
-245.79
-264.94
-257.21
-227.08
-182.76
-132.65
-83.06
-37.82
0.90
31.77
54.15
68.71
77.75
84.92
94.02
107.46
125.59
147.32
171.55
198.66
230.76
270.39
318.31
371.54
423.14
464.08
486.48
486.50
465.75
430.02
386.55
341.02
295.97
251.19
205.66
159.37
113.78
71.23
33.20
-0.80
-33.20
-67.35
-106.31
-152.00
-204.75
-263.29
-324.36
-382.75
-431.70
-464.53
-476.50
-466.46
-437.30
-394.73
-345.00
-292.61
-239.54
-186.15
-133.15
-82.71
-38.29
-3.13
21.24
35.69
43.05
46.74
49.62
52.79
55.84
57.38
55.40
48.07
34.95
18.39
3.82
-1.78
6.11
28.04
60.28
96.55
130.42
157.41
175.31
183.00
179.19
160.83
128.01
86.96
49.16
25.62
20.60
29.07
39.47
40.18
22.27
-13.68
-58.29
-99.12
-128.12
-145.15
-155.92
-167.03
-182.52
-207.14
-242.29
-285.64
-332.29
-377.76
-419.47
-455.83
-484.93
-476.60
-413.30
-301.39
-168.78
-44.38
55.94
128.86
178.18
210.67
233.02
246.33
250.67
247.26
239.11
229.13
218.72
208.37
198.69
190.23
179.67
164.05
142.38
115.98
86.80
56.32
25.80
0.03
-19.33
-33.66
-44.67
-53.48
-60.53
-66.67
-73.56
-82.44
-92.59
-100.86
-102.62
-93.10
-69.80
-34.13
8.42
50.02
83.23
103.28
108.05
97.59
73.75
39.77
0.33
-38.82
-72.09
-95.85
-109.57
-115.72
-117.50
-116.49
-111.76
-100.92
-82.13
-56.17
-26.81
0.81
22.33
36.08
43.28
46.64
47.82
45.92
37.70
19.99
-7.35
-39.72
-68.65
-85.30
-84.53
-67.44
-40.63
-13.14
8.09
20.74
27.39
32.64
39.80
49.36
59.13
66.39
69.79
70.22
70.22
72.42
78.15
86.68
95.17
99.84
97.65
87.92
72.98
57.30
45.42
39.75
39.39
40.89
40.18
34.84
25.18
13.98
4.91
0.72
2.32
8.88
18.81
30.47
42.14
51.75
56.76
54.88
44.96
27.99
6.95
-13.73
-29.80
-38.86
-41.00
-38.36
-33.80
-29.49
-26.24
-24.07
-22.39
-21.02
-20.48
-21.60
-25.09
-31.10
-39.50
-49.86
-62.05
-75.07
-86.64
-93.43
-91.90
-79.84
-57.80
-29.56
1.47
29.49
50.53
64.20
73.12
80.65
88.37
95.23
98.68
96.89
90.04
80.68
71.80
64.63
58.01
49.63
38.33
25.50
14.55
8.48
8.26
11.95
15.84
16.83
14.30
10.40
8.79
12.21
20.63
31.36
40.40
44.28
41.45
32.54
19.66
5.38
-8.15
-19.49
-27.72
-32.55
-34.54
-35.44
-37.78
-43.90
-54.57
-68.02
-80.19
-86.14
-82.18
-67.55
-44.84
-19.09
4.03
19.92
26.21
23.07
12.62
-1.91
-17.08
-29.96
-38.70
-42.97
-44.24
-45.71
-51.52
-65.35
-88.64
-119.24
-151.34
-177.07
-189.03
-182.84
-158.13
-117.91
-66.78
-9.22
51.04
110.35
164.35
207.76
235.47
244.39
234.92
210.93
178.28
142.63
107.40
73.26
38.83
2.39
-36.46
-75.99
-112.73
-142.78
-163.45
-174.36
-177.53
-176.47
-174.64
-174.17
-175.18
-176.07
-174.43
-168.08
-155.88
-137.92
-115.37
-90.04
-63.84
-38.49
-15.25
5.06
21.93
35.00
44.06
49.06
50.22
48.09
43.43
36.93
29.08
20.07
10.00
-0.78
-11.52
-21.00
-27.96
-31.63
-32.09
-30.38
-28.00
-26.17
-25.38
-25.15
-24.52
-22.59
-19.10
-14.40
-9.12
-3.59
2.36
9.35
18.02
28.64
40.93
54.19
67.48
79.88
90.42
98.08
101.81
100.79
94.75
84.38
71.24
57.41
44.89
34.84
27.29
21.29
15.71
9.92
4.27
-0.12
-2.12
-1.34
1.44
4.63
6.61
6.46
4.33
1.14
-1.90
-3.87
-4.40
-3.77
-2.78
-2.64
-4.65
-9.64
-17.30
-26.01
-33.10
-35.98
-33.23
-25.46
-14.96
-4.78
2.55
5.89
5.54
2.58
-1.96
-7.43
-13.56
-20.01
-26.08
-30.80
-33.20
-32.89
-30.11
-25.84
-21.34
-17.63
-15.16
-13.54
-11.78
-8.67
-3.47
3.60
11.29
17.76
21.53
22.29
21.39
21.27
24.51
32.66
45.65
61.91
79.14
95.10
108.08
117.11
121.81
122.34
119.38
114.12
108.04
102.45
98.10
94.91
92.08
88.38
82.38
72.73
58.31
38.70
14.32
-13.39
-42.44
-70.87
-97.12
-120.09
-138.63
-151.24
-156.20
-152.31
-139.71
-120.24
-96.83
-72.42
-49.03
-27.43
-7.71
9.93
24.83
36.20
43.74
48.11
50.69
52.90
55.33
57.46
57.93
55.30
48.79
38.60
26.03
13.09
1.92
-5.70
-8.90
-7.91
-4.00
0.89
4.86
6.57
5.75
3.13
0.17
-1.60
-1.15
1.62
5.90
10.35
13.76
15.59
16.20
16.55
17.59
19.69
22.47
25.13
27.00
27.91
28.28
28.61
29.11
29.40
28.85
26.88
23.41
18.82
13.73
8.62
3.76
-0.83
-5.07
-8.83
-12.00
-14.71
-17.36
-20.55
-24.69
-30.02
-36.53
-44.23
-53.32
-64.03
-76.24
-89.16
-101.34
-111.17
-117.56
-120.47
-121.05
-121.15
-122.52
-126.23
-132.36
-140.08
-148.09
-155.16
-160.35
-163.37
-164.45
-164.31
-163.97
-164.71
-168.03
-175.53
-188.30
-205.80
-225.23
-241.28
-247.30
-237.52
-208.88
-161.80
-99.36
-25.71
54.92
137.83
216.74
283.19
327.98
344.26
330.76
293.01
241.51
187.69
139.90
101.92
74.06
55.39
45.62
45.00
52.81
66.13
80.13
89.93
92.97
90.10
84.69
80.56
79.67
81.42
83.78
85.15
85.67
87.11
91.15
97.58
103.71
105.47
99.84
86.77
69.53
52.80
40.02
31.50
24.81
16.99
6.97
-3.28
-9.95
-9.94
-3.10
7.51
17.22
22.31
21.91
17.81
12.89
9.17
6.87
4.96
2.49
-0.37
-2.39
-2.23
0.45
4.64
8.59
10.92
11.36
10.70
9.93
9.37
8.58
6.83
3.94
0.58
-2.06
-3.09
-2.37
-0.42
2.17
5.26
9.02
13.51
18.10
21.59
22.94
21.92
19.41
16.84
15.26
14.78
14.73
14.42
13.80
13.53
14.30
16.10
17.83
17.92
15.45
10.86
6.00
3.04
3.26
6.24
10.17
12.83
12.86
10.34
6.57
3.11
0.87
-0.32
-1.61
-4.33
-9.45
-17.03
-26.02
-34.62
-40.60
-42.14
-38.56
-30.77
-21.31
-13.69
-11.23
-16.14
-28.81
-47.88
-70.68
-93.62
-112.60
-123.67
-124.01
-113.11
-93.28
-68.93
-44.63
-23.03
-3.57
16.98
42.66
75.94
116.17
159.77
201.86
238.32
267.00
287.46
299.59
301.96
291.50
264.47
218.84
157.01
86.97
20.96
-28.52
-53.85
-55.42
-41.54
-24.77
-16.34
-22.05
-41.35
-69.45
-101.07
-133.19
-165.77
-200.56
-238.97
-280.69
-323.32
-363.02
-395.43
-416.49
-423.27
-414.78
-392.48
-360.25
-323.38
-286.89
-254.14
-226.10
-201.88
-179.98
-159.42
-140.12
-122.41
-106.29
-90.95
-74.74
-55.94
-33.83
-9.13
16.14
39.60
59.74
76.84
93.22
112.61
138.71
173.35
214.90
258.09
295.31
319.07
324.68
311.61
283.17
244.82
202.05
159.33
120.34
88.68
68.17
61.78
69.98
89.74
115.06
139.34
157.65
167.97
170.35
164.89
150.09
122.86
80.46
23.27
-43.52
-110.50
-166.72
-203.44
-216.67
-207.66
-181.20
-143.06
-98.19
-50.38
-3.02
39.87
73.89
95.60
104.25
102.67
96.34
91.08
90.65
95.57
103.68
111.78
117.33
119.20
117.43
112.48
104.73
94.32
81.45
66.51
50.13
33.09
16.24
0.41
-13.63
-25.41
-34.91
-42.64
-49.45
-56.14
-62.97
-69.55
-74.96
-78.27
-79.08
-77.85
-75.86
-74.74
-75.70
-78.98
-83.67
-88.24
-91.45
-93.11
-94.23
-96.38
-100.76
-107.53
-115.82
-124.15
-130.98
-134.86
-134.30
-127.63
-113.27
-90.32
-59.17
-21.49
20.44
65.03
112.17
163.19
219.39
280.14
341.49
396.31
436.29
454.80
449.24
421.95
378.95
327.42
273.21
219.27
165.73
111.10
53.94
-5.78
-65.93
-122.51
-170.59
-205.76
-225.55
-230.21
-222.58
-206.75
-186.53
-164.41
-141.56
-118.73
-97.14
-78.55
-64.40
-54.50
-46.57
-37.06
-22.99
-3.68
18.47
38.97
53.10
57.98
53.72
43.18
30.64
20.02
13.49
10.92
10.53
10.00
7.83
4.05
-0.01
-2.42
-1.85
1.83
7.50
13.39
17.91
20.14
20.01
17.99
14.88
11.57
8.97
7.95
9.21
12.98
18.89
26.29
34.41
42.76
51.34
60.51
70.81
82.64
96.18
111.33
127.64
144.09
159.07
170.38
175.66
173.10
162.01
142.90
116.85
84.87
47.57
5.84
-37.96
-79.27
-111.76
-129.27
-128.20
-109.08
-76.29
-36.24
4.94
42.92
75.18
100.13
116.26
122.25
117.72
104.03
84.30
62.30
40.98
21.64
4.07
-12.41
-27.79
-41.08
-50.73
-55.77
-56.60
-55.20
-54.46
-57.27
-65.94
-81.66
-104.14
-131.32
-159.32
-182.96
-197.07
-198.29
-186.45
-164.77
-138.38
-112.12
-88.71
-68.44
-50.48
-34.52
-21.80
-14.53
-14.42
-21.16
-32.21
-43.82
-52.75
-57.55
-58.83
-58.49
-58.61
-60.37
-63.86
-68.36
-72.97
-77.05
-80.51
-83.78
-87.63
-92.74
-99.39
-107.17
-115.03
-121.57
-125.55
-126.40
-124.47
-121.06
-117.80
-116.20
-117.03
-120.34
-125.70
-132.59
-140.71
-149.50
-157.68
-162.93
-162.47
-154.21
-138.00
-115.95
-91.79
-69.22
-50.43
-35.56
-23.36
-12.60
-3.31
3.01
4.28
-0.57
-10.54
-22.41
-31.76
-34.55
-28.37
-12.89
10.46
39.18
70.21
100.23
126.07
145.22
156.40
159.75
156.32
147.17
132.75
113.04
88.54
61.25
34.66
12.55
-2.91
-12.32
-18.53
-24.66
-31.99
-38.90
-41.96
-37.96
-25.90
-7.46
13.97
34.97
53.39
68.50
80.34
88.88
93.84
95.06
93.29
90.61
90.00
94.34
105.16
121.87
141.85
161.33
176.62
185.16
186.09
180.20
169.45
156.32
143.18
131.70
122.55
115.40
109.26
103.11
96.56
90.21
85.48
83.94
86.38
92.12
98.94
103.59
102.76
93.93
76.05
49.67
16.90
-18.96
-53.87
-83.90
-106.00
-118.81
-122.96
-120.69
-115.00
-108.52
-102.81
-98.19
-94.27
-90.58
-86.94
-83.55
-80.63
-78.16
-75.88
-73.58
-71.49
-70.20
-70.40
-72.30
-75.38
-78.61
-80.95
-82.03
-82.27
-82.53
-83.52
-85.38
-87.71
-90.09
-92.39
-94.95
-98.09
-101.62
-104.66
-105.83
-103.92
-98.49
-90.01
-79.40
-67.52
-54.74
-41.08
-26.63
-12.02
1.62
13.13
21.99
28.79
35.03
42.41
51.94
63.33
75.14
85.49
93.02
97.57
100.19
102.55
106.02
111.00
116.67
121.44
123.76
122.98
119.61
115.17
111.31
108.96
107.66
105.48
99.76
88.08
69.24
43.63
12.86
-20.90
-55.37
-88.05
-115.99
-135.90
-145.24
-143.58
-133.42
-119.41
-106.43
-97.22
-91.30
-85.77
-77.44
-65.14
-50.51
-37.02
-27.89
-24.27
-24.88
-27.06
-28.43
-28.09
-26.68
-25.53
-25.54
-26.46
-26.94
-25.32
-20.73
-13.78
-6.53
-1.52
-0.48
-3.25
-7.79
-11.15
-11.07
-7.33
-1.88
2.22
2.50
-1.36
-7.31
-12.04
-12.76
-8.81
-1.79
5.53
10.89
13.76
15.32
17.43
21.18
26.03
30.36
32.56
32.17
30.34
29.06
29.82
32.68
35.93
37.28
35.08
29.45
22.27
16.27
13.45
14.16
16.77
18.91
18.91
16.73
14.05
13.12
15.37
20.56
26.76
31.59
33.46
32.40
29.77
27.27
25.89
25.37
24.47
21.83
16.81
9.72
1.65
-6.11
-12.46
-16.63
-18.44
-18.12
-16.38
-14.25
-12.79
-12.57
-13.39
-14.21
-13.79
-11.22
-6.48
-0.41
5.74
10.91
14.68
17.31
19.36
21.41
23.63
25.86
27.59
28.29
27.57
25.41
22.22
18.70
15.58
13.21
11.41
9.54
6.93
3.37
-0.79
-4.82
-8.01
-10.20
-11.89
-13.88
-16.85
-20.91
-25.53
-29.84
-33.06
-34.89
-35.65
-36.04
-36.74
-38.02
-39.52
-40.27
-39.07
-35.08
-28.21
-19.36
-10.13
-2.17
3.44
6.54
7.71
7.80
7.43
6.83
6.02
5.25
5.14
6.46
9.59
14.12
18.87
22.31
23.43
22.24
19.74
17.32
16.01
15.87
16.18
15.93
14.56
12.34
10.22
9.15
9.44
10.50
11.05
9.91
6.75
2.33
-1.86
-4.31
-4.23
-1.86
1.96
6.26
10.49
14.67
19.27
24.98
32.58
42.73
55.85
71.81
89.56
106.99
121.08
128.62
127.24
116.59
99.14
79.95
65.30
60.18
65.85
78.63
90.73
93.08
79.08
47.27
1.93
-48.82
-96.16
-133.62
-158.54
-171.87
-176.80
-177.26
-177.06
-179.62
-187.95
-204.28
-229.34
-261.49
-296.29
-327.24
-348.07
-355.54
-351.11
-340.50
-330.47
-325.07
-323.00
-317.81
-300.70
-264.60
-207.28
-132.21
-47.09
39.00
117.74
182.64
229.50
256.59
264.41
255.33
232.92
201.27
165.55
131.35
104.65
91.19
95.40
118.87
159.11
209.53
261.09
306.22
340.00
360.96
370.31
370.58
364.00
351.13
330.46
299.34
257.68
208.19
156.51
109.75
74.20
53.07
45.09
44.92
35.35
4.55
-49.44
-116.68
-182.02
-234.14
-269.23
-289.32
-298.64
-301.16
-296.51
-283.23
-260.91
-231.25
-197.19
-161.28
-126.06
-92.25
-59.24
-24.58
13.28
53.49
92.12
123.03
139.95
138.76
119.29
85.62
45.87
8.85
-18.50
-32.83
-34.09
-23.73
-2.81
28.98
72.30
126.32
186.48
244.31
289.41
313.43
313.29
292.12
257.36
217.02
176.83
138.97
103.27
69.50
39.04
14.74
-0.62
-6.55
-5.85
-4.00
-7.18
-19.77
-42.96
-74.41
-109.26
-141.82
-167.04
-181.21
-182.21
-169.68
-145.69
-115.36
-86.23
-66.13
-59.70
-65.96
-78.47
-88.83
-91.63
-87.89
-84.70
-90.76
-110.84
-142.37
-176.47
-202.63
-213.88
-209.72
-195.11
-176.77
-159.64
-145.59
-134.79
-127.83
-127.29
-136.86
-158.82
-191.46
-228.37
-260.12
-277.83
-276.31
-255.81
-221.32
-180.18
-139.28
-103.07
-73.09
-48.56
-27.68
-8.53
10.46
30.36
52.33
78.15
110.45
151.88
203.30
262.00
321.10
370.84
401.66
407.56
387.84
346.71
291.27
229.24
167.39
111.60
67.09
38.42
28.72
38.66
66.26
107.27
155.97
205.75
249.50
279.92
290.71
278.45
243.87
191.69
128.81
61.63
-5.86
-72.11
-136.54
-197.64
-252.18
-295.81
-324.63
-336.83
-333.53
-318.56
-297.22
-274.76
-254.73
-237.79
-221.86
-203.21
-178.18
-144.87
-103.80
-57.33
-8.53
40.02
86.57
129.65
167.52
197.89
218.37
227.37
224.90
212.78
194.40
173.78
154.51
138.90
127.59
119.73
113.73
107.99
101.42
93.64
84.57
74.19
62.46
49.37
35.26
20.93
7.47
-4.07
-13.01
-19.25
-23.15
-25.32
-26.30
-26.44
-25.90
-24.75
-23.11
-21.10
-18.81
-16.14
-12.87
-8.79
-4.09
0.62
4.40
6.44
6.53
5.22
3.67
3.09
4.28
7.31
11.70
16.77
21.87
26.61
30.65
33.51
34.61
33.49
30.06
24.86
18.90
13.24
8.57
4.99
2.12
-0.52
-3.15
-5.64
-7.62
-8.93
-9.84
-11.07
-13.42
-17.27
-22.14
-26.71
-29.21
-28.19
-23.14
-14.92
-5.40
3.15
8.92
11.32
11.03
9.79
9.69
12.57
19.38
29.79
41.71
51.16
52.89
41.83
15.23
-25.51
-74.24
-121.43
-157.06
-174.00
-170.20
-149.00
-117.31
-82.83
-51.59
-26.74
-8.86
2.93
9.78
12.53
11.86
8.69
4.50
1.08
-0.21
0.95
3.54
5.71
5.86
3.63
0.18
-2.29
-1.73
2.71
10.28
18.99
26.56
31.44
33.26
32.73
31.17
29.77
29.20
29.47
30.05
30.25
29.54
27.78
25.25
22.56
20.43
19.51
20.13
22.31
25.68
29.43
32.39
33.20
30.69
24.32
14.44
2.39
-9.90
-20.50
-28.06
-32.12
-33.12
-32.03
-30.09
-28.45
-27.94
-28.93
-31.12
-33.54
-34.75
-33.24
-28.17
-19.58
-8.58
3.15
13.82
22.09
27.31
29.52
29.31
27.83
26.55
27.06
30.57
37.45
46.91
57.08
65.47
69.89
69.23
63.90
55.79
47.50
41.47
39.01
39.91
42.75
45.60
46.84
45.56
41.34
34.18
24.83
15.21
8.80
9.70
20.57
40.50
64.30
84.03
92.73
87.68
71.52
50.50
31.01
16.88
8.82
6.07
8.28
16.28
31.06
51.97
76.00
98.61
115.84
125.98
129.82
129.49
126.90
122.44
115.08
103.08
84.68
58.45
23.22
-22.24
-79.41
-149.72
-233.60
-328.95
-429.77
-526.24
-606.51
-660.13
-681.66
-672.66
-640.84
-596.78
-549.79
-504.86
-462.23
-419.12
-372.57
-321.62
-267.90
-214.51
-164.29
-118.55
-76.75
-37.13
2.37
43.40
87.01
133.81
183.68
234.92
282.95
319.96
336.54
325.18
284.41
220.79
147.64
80.51
31.51
5.34
-1.20
3.79
11.69
16.77
16.79
11.76
1.59
-14.39
-36.38
-63.31
-92.34
-119.84
-142.26
-157.51
-165.77
-169.20
-170.72
-172.57
-175.38
-178.01
-178.34
-174.38
-165.44
-152.43
-137.43
-122.49
-108.65
-95.38
-80.97
-63.40
-41.34
-14.97
14.12
43.64
71.69
97.59
121.87
145.74
170.04
194.48
217.44
236.75
250.73
259.25
263.96
267.60
273.01
282.26
296.63
316.71
342.37
371.94
401.38
424.18
432.78
421.34
388.57
338.59
279.36
219.31
164.31
116.88
77.82
48.67
32.98
34.68
54.66
87.79
122.63
144.56
140.89
105.42
40.46
-43.99
-133.71
-214.17
-273.93
-306.49
-310.67
-289.68
-249.26
-195.69
-134.35
-69.51
-4.69
56.82
112.02
159.20
198.88
233.64
266.34
297.87
325.48
343.38
345.23
327.16
289.43
236.23
173.91
109.13
47.42
-7.62
-54.57
-93.82
-126.77
-154.16
-174.18
-181.63
-169.69
-133.30
-73.42
1.32
76.39
136.14
169.10
170.77
143.64
95.14
35.45
-23.81
-70.92
-95.98
-94.31
-68.66
-29.45
8.38
30.28
26.90
-3.58
-55.93
-120.31
-185.01
-238.55
-271.45
-277.73
-256.16
-210.68
-149.44
-82.21
-17.56
38.82
84.37
118.09
139.27
146.75
139.24
116.15
78.33
28.53
-28.42
-85.77
-135.76
-171.43
-188.34
-185.95
-167.75
-140.02
-109.66
-82.24
-60.73
-45.60
-35.77
-29.72
-26.07
-23.66
-21.50
-18.67
-14.60
-9.25
-3.20
2.48
6.34
6.99
3.60
-3.61
-13.07
-22.16
-28.15
-29.31
-25.63
-18.80
-11.20
-4.78
-0.27
2.78
5.28
7.83
10.33
12.20
12.79
11.74
8.91
4.23
-2.31
-10.58
-20.09
-30.14
-40.18
-50.17
-60.53
-71.50
-82.38
-91.21
-95.50
-93.56
-85.84
-75.25
-66.11
-62.16
-64.88
-73.08
-83.88
-94.41
-103.09
-109.61
-113.99
-115.46
-112.13
-101.57
-82.10
-53.32
-15.75
30.06
84.02
145.57
