1649955683.00
64.000000
-0.00
-0.00
-0.00
-0.00
-0.00
-0.00
-0.00
-0.00
-0.00
-0.00
0.00
0.01
0.01
-0.00
-0.03
-0.05
-0.05
0.00
0.13
0.36
0.66
1.01
1.37
1.72
2.06
2.40
2.79
3.24
3.80
4.42
5.06
5.66
6.20
6.68
7.15
7.68
8.31
9.14
10.09
11.04
11.88
12.56
13.14
13.76
14.65
15.96
17.91
20.32
22.90
25.38
27.58
29.57
31.68
34.32
37.81
42.54
48.15
54.10
59.83
64.97
69.58
74.14
79.34
85.71
93.76
103.00
112.62
121.73
129.77
136.75
143.30
150.75
157.77
166.64
177.95
191.79
206.97
220.57
228.25
225.36
208.53
176.87
132.76
80.05
23.07
-34.94
-92.44
-149.16
-205.23
-260.37
-313.74
-363.87
-409.83
-450.91
-486.50
-515.74
-537.23
-549.22
-549.96
-538.37
-514.21
-478.67
-433.88
-382.45
-327.02
-269.84
-212.63
-156.66
-102.95
-52.37
-5.90
35.58
71.43
101.35
125.50
144.38
158.69
169.15
176.37
180.75
182.57
182.07
179.51
175.23
169.65
163.18
156.15
148.81
141.30
133.69
126.02
118.33
110.69
103.16
95.80
88.68
81.83
75.25
68.95
62.95
57.25
51.86
46.78
42.03
37.59
33.45
29.61
26.07
22.81
19.83
17.11
14.67
12.48
10.54
8.83
7.35
6.07
4.97
4.05
3.27
2.62
2.09
1.65
1.30
1.01
0.79
0.61
0.48
0.37
0.29
0.24
0.20
0.18
0.17
0.17
0.19
0.21
0.23
0.26
0.30
0.34
0.38
0.43
0.49
0.56
0.61
0.64
0.64
0.61
0.56
0.54
0.55
0.62
0.73
0.86
0.96
1.02
1.04
1.05
1.10
1.23
1.45
1.74
2.04
2.29
2.47
2.57
2.67
2.84
3.17
3.70
4.36
5.01
5.50
5.74
5.75
5.69
5.78
6.25
7.15
8.34
9.51
10.32
10.57
10.29
9.82
9.62
10.07
11.24
12.79
14.05
14.31
13.07
10.31
6.46
2.25
-1.82
-5.48
-9.02
-12.99
-17.82
-23.78
-30.82
-38.71
-46.96
-54.70
-60.45
-62.38
-58.88
-49.50
-35.58
-20.05
-6.41
2.75
6.81
7.19
6.37
6.49
8.35
11.45
14.69
17.25
19.06
20.54
21.97
23.14
23.33
21.85
18.55
14.14
9.93
7.15
6.43
7.55
9.61
11.47
12.29
11.78
10.17
8.01
5.84
4.00
2.65
1.86
1.46
1.15
0.34
-1.54
-4.71
-8.61
-11.93
-13.16
-11.51
-7.55
-3.06
-0.04
0.55
-0.69
-1.97
-1.48
1.40
5.74
9.94
12.23
11.91
9.73
7.22
5.66
5.30
5.39
4.79
2.80
-0.51
-4.39
-7.99
-10.72
-12.56
-13.78
-14.71
-15.61
-16.53
-17.46
-18.34
-19.13
-19.84
-20.58
-21.51
-22.75
-24.36
-26.20
-28.07
-29.64
-30.56
-30.54
-29.33
-26.85
-23.12
-18.44
-13.30
-8.30
-3.87
-0.08
3.37
7.01
11.18
15.71
19.96
23.10
24.67
24.84
24.38
24.17
24.85
26.53
29.01
32.17
36.17
41.19
47.16
53.43
58.90
62.59
64.09
63.75
62.34
60.43
57.96
54.33
48.83
41.27
32.16
22.56
13.54
5.78
-0.61
-5.88
-10.39
-14.41
-18.06
-21.44
-24.73
-28.14
-31.95
-36.28
-41.11
-46.20
-51.21
-55.86
-59.97
-63.48
-66.29
-68.09
-68.40
-66.77
-63.02
-57.52
-51.05
-44.41
-38.13
-32.17
-26.18
-19.78
-12.91
-5.71
1.66
9.28
17.39
26.07
34.90
42.85
48.76
51.80
51.99
50.12
47.28
44.39
41.83
39.65
37.83
36.56
36.18
36.94
38.68
40.88
42.86
44.15
44.68
44.72
44.59
44.41
43.96
42.77
40.34
36.37
30.78
23.74
15.46
6.23
-3.68
-13.93
-24.13
-33.82
-42.50
-49.79
-55.40
-59.19
-61.11
-61.16
-59.49
-56.45
-52.72
-49.19
-46.69
-45.56
-45.48
-45.43
-44.14
-40.60
-34.44
-26.12
-16.67
-7.26
1.13
7.94
13.06
16.67
19.05
20.54
21.38
21.78
21.91
21.93
21.98
22.09
22.15
21.88
21.00
19.39
17.26
15.12
13.52
12.75
12.68
12.72
12.10
10.21
6.75
1.77
-4.44
-11.64
-19.74
-28.81
-38.98
-50.30
-62.60
-75.40
-88.07
-99.94
-110.29
-118.20
-122.61
-122.56
-117.63
-108.31
-95.90
-82.41
-69.91
-59.86
-52.54
-46.99
-41.50
-34.42
-24.76
-12.35
1.82
15.75
26.93
33.29
33.93
29.38
21.38
12.28
5.02
1.35
0.89
1.47
0.48
-3.66
-10.85
-19.26
-26.06
-26.58
-17.56
0.93
25.05
48.80
65.82
70.66
59.93
33.37
-2.57
-38.84
-66.79
-80.91
-78.97
-61.64
-32.13
4.99
45.77
92.38
148.56
215.92
290.98
365.93
430.97
477.06
498.88
473.78
395.34
280.19
160.78
63.26
-4.77
-49.45
-80.50
-104.62
-125.64
-142.08
-153.59
-162.11
-170.91
-180.46
-187.00
-185.05
-170.62
-145.35
-111.04
-76.40
-49.85
-35.80
-32.99
-35.90
-38.07
-33.37
-20.53
0.93
28.65
57.66
80.63
90.73
84.57
58.96
21.91
-15.09
-41.92
-54.80
-55.60
-49.51
-41.49
-34.23
-28.39
-23.07
-18.77
-16.36
-16.45
-18.34
-20.46
-21.25
-19.82
-16.56
-12.23
-8.60
-7.10
-8.14
-10.69
-13.06
-13.89
-12.87
-10.79
-8.61
-7.60
-8.38
-10.57
-13.03
-14.48
-14.29
-12.80
-11.05
-10.28
-11.93
-17.22
-26.70
-39.51
-53.08
-63.39
-66.31
-59.43
-43.50
-22.65
-2.91
10.25
14.28
10.47
2.52
-5.66
-11.78
-15.49
-17.42
-17.88
-16.07
-10.69
-0.91
12.63
27.82
41.93
52.59
58.92
61.64
62.55
63.57
65.72
68.61
70.68
70.13
65.77
57.78
47.75
38.00
30.77
27.54
28.59
32.95
38.54
42.42
41.53
33.51
17.86
-3.42
-26.00
-44.63
-55.09
-55.93
-49.14
-39.24
-31.32
-29.00
-33.30
-42.73
-54.42
-65.51
-73.96
-78.93
-80.54
-79.39
-76.29
-71.93
-67.10
-62.25
-58.43
-56.35
-56.04
-56.78
-57.31
-56.24
-52.55
-46.07
-37.53
-28.42
-20.35
-14.52
-11.44
-10.80
-11.74
-13.13
-14.10
-14.16
-13.45
-12.39
-11.56
-11.38
-12.01
-13.26
-14.74
-16.07
-16.96
-17.24
-16.81
-15.65
-13.92
-11.89
-9.88
-8.15
-6.75
-5.56
-4.39
-3.14
-1.74
-0.12
1.98
4.90
8.89
13.82
19.13
24.00
27.84
30.59
32.81
35.27
38.57
42.71
47.09
50.86
53.32
54.17
53.60
51.97
49.63
46.77
43.44
39.81
36.21
33.18
31.32
31.04
32.40
35.08
38.59
42.45
46.39
50.35
54.38
58.40
62.16
65.31
67.55
68.94
69.85
70.95
72.90
76.09
80.48
85.78
91.63
97.91
104.79
112.54
121.22
130.36
138.86
145.27
148.14
146.47
139.96
128.91
114.06
96.29
76.55
55.83
35.10
15.14
-3.72
-21.86
-40.23
-59.92
-81.47
-104.39
-127.07
-147.36
-163.35
-174.06
-179.67
-181.22
-179.86
-176.45
-171.35
-164.63
-156.38
-146.85
-136.46
-125.57
-114.40
-102.99
-91.32
-79.45
-67.55
-55.96
-44.99
-34.92
-25.92
-18.07
-11.28
-5.38
-0.13
4.61
8.81
12.26
14.58
15.46
14.87
13.09
10.73
8.46
6.82
5.98
5.76
5.75
5.51
4.85
3.77
2.42
0.89
-0.88
-3.11
-5.93
-9.37
-13.35
-17.81
-22.92
-28.99
-36.22
-44.38
-52.64
-59.68
-64.14
-64.98
-61.84
-54.98
-45.12
-33.18
-20.13
-6.88
5.76
17.21
27.23
35.98
44.04
52.10
60.70
69.93
79.37
88.21
95.65
101.16
104.73
106.81
108.18
109.63
111.72
114.77
118.75
123.33
127.95
131.71
133.51
132.17
126.64
116.25
100.93
81.19
58.06
32.95
7.46
-16.74
-38.06
-55.15
-67.15
-73.92
-76.12
-75.10
-72.51
-69.73
-67.41
-65.35
-62.74
-58.71
-52.88
-45.63
-37.90
-30.94
-25.78
-23.09
-23.09
-25.48
-29.56
-34.28
-38.45
-41.06
-41.63
-40.31
-37.81
-35.06
-32.92
-31.94
-32.28
-33.79
-35.91
-37.70
-37.94
-35.46
-29.56
-20.28
-8.39
5.05
19.16
33.49
47.98
62.67
77.38
91.67
104.99
116.88
126.97
134.78
139.53
140.12
135.49
125.25
110.16
92.14
73.72
57.32
44.45
35.44
29.49
25.24
21.35
16.93
11.75
6.05
0.24
-5.57
-11.68
-18.86
-27.94
-39.41
-53.07
-67.90
-82.40
-95.15
-105.26
-112.61
-117.53
-120.39
-121.16
-119.36
-114.37
-105.94
-94.53
-81.34
-67.86
-55.29
-44.17
-34.27
-24.96
-15.76
-6.66
1.85
8.96
13.87
15.93
14.59
9.41
0.30
-12.16
-26.39
-39.98
-50.33
-55.68
-55.90
-52.55
-48.13
-44.87
-43.79
-44.45
-45.52
-45.73
-44.54
-42.13
-39.05
-35.62
-31.69
-26.81
-20.62
-13.10
-4.69
3.92
12.15
19.65
26.33
32.40
38.06
43.48
48.64
53.20
56.72
58.75
59.24
58.60
57.60
57.06
57.42
58.56
59.85
60.44
59.70
57.34
53.56
48.80
43.60
38.41
33.54
29.09
25.00
21.11
17.24
13.30
9.38
5.80
3.09
1.84
2.55
5.49
10.55
17.26
24.85
32.45
39.30
44.90
48.99
51.51
52.48
51.90
49.73
46.01
40.84
34.53
27.55
20.49
14.06
8.95
5.66
4.30
4.37
4.73
3.74
-0.28
-8.54
-21.33
-37.92
-56.71
-75.70
-92.90
-106.73
-116.11
-120.51
-119.84
-114.47
-105.23
-93.27
-79.89
-66.23
-53.03
-40.53
-28.69
-17.43
-7.01
2.02
8.97
13.38
15.36
15.56
15.05
14.79
15.35
16.68
18.25
19.29
19.15
17.40
13.98
9.15
3.56
-1.86
-5.98
-7.83
-6.92
-3.53
1.34
6.31
10.12
12.13
12.50
11.90
11.16
10.84
11.02
11.50
12.00
12.48
13.21
14.73
17.67
22.53
29.53
38.51
48.97
60.07
70.76
79.94
86.51
89.54
88.49
83.40
74.93
64.28
52.71
41.12
29.79
18.46
6.77
-5.26
-17.01
-27.50
-35.88
-41.89
-46.01
-49.12
-52.11
-55.49
-59.39
-63.82
-68.80
-74.41
-80.54
-86.60
-91.53
-94.10
-93.46
-89.47
-82.82
-74.67
-66.14
-57.86
-49.96
-42.16
-34.23
-26.13
-18.10
-10.51
-3.61
2.52
7.93
12.67
16.68
19.82
21.92
23.00
23.25
23.03
22.61
22.04
21.00
18.97
15.55
10.76
5.16
-0.30
-4.72
-7.68
-9.40
-10.61
-12.05
-14.15
-16.65
-18.88
-20.07
-19.84
-18.38
-16.34
-14.45
-13.14
-12.28
-11.25
-9.25
-5.56
0.13
7.69
16.59
26.13
35.61
44.53
52.79
60.61
68.45
76.74
85.67
95.05
104.35
112.75
119.37
123.39
124.15
121.20
114.52
104.65
92.64
79.83
67.47
56.14
45.70
35.49
24.73
13.06
0.59
-12.27
-25.22
-38.20
-51.37
-64.85
-78.47
-91.66
-103.65
-113.83
-121.86
-127.68
-131.27
-132.46
-130.86
-126.05
-117.82
-106.43
-92.68
-77.76
-63.04
-49.67
-38.33
-29.08
-21.48
-14.81
-8.46
-2.17
3.95
9.55
14.36
18.30
21.52
24.24
26.53
28.23
28.98
28.49
26.67
23.82
20.43
16.94
13.57
10.19
6.42
1.90
-3.58
-9.92
-16.78
-23.72
-30.30
-36.19
-41.09
-44.71
-46.74
-46.99
-45.49
-42.59
-38.81
-34.72
-30.61
-26.48
-22.09
-17.20
-11.81
-6.26
-1.07
3.27
6.58
9.06
11.12
13.20
15.56
18.16
20.79
23.23
25.39
27.31
29.16
31.00
32.76
34.22
35.08
35.10
34.23
32.56
30.26
27.48
24.22
20.41
15.99
11.10
6.17
1.89
-1.00
-1.98
-0.85
2.15
6.47
11.50
16.67
21.62
26.17
30.26
33.86
36.89
39.24
40.80
41.55
41.62
41.18
40.39
39.27
37.71
35.53
32.69
29.35
25.85
22.63
19.97
17.98
16.62
15.85
15.67
16.09
16.90
17.73
18.07
17.53
15.97
13.49
10.25
6.26
1.49
-4.02
-9.73
-14.56
-17.16
-16.34
-11.65
-3.54
6.88
18.34
29.85
40.88
51.28
61.09
70.50
79.97
90.41
103.07
119.08
138.48
159.56
178.78
191.51
193.66
183.10
160.40
128.59
91.78
53.77
16.98
-17.71
-50.51
-81.89
-112.10
-140.95
-167.88
-192.19
-213.04
-229.56
-240.97
-246.72
-246.61
-240.85
-230.00
-214.54
-194.56
-169.90
-140.56
-107.07
-70.73
-33.64
1.63
32.30
56.32
72.98
82.91
87.63
88.83
87.82
85.28
81.34
75.63
68.31
60.53
53.89
49.50
47.20
45.63
42.82
37.03
26.47
11.46
-5.06
-18.94
-27.21
-29.50
-27.82
-25.59
-26.14
-33.77
-49.32
-68.65
-84.79
-92.15
-88.66
-75.71
-57.03
-37.50
-26.05
-29.04
-47.01
-75.45
-108.15
-138.61
-160.43
-168.87
-163.60
-155.35
-157.10
-176.66
-213.81
-262.35
-312.35
-352.81
-375.41
-344.95
-252.64
-126.09
-7.71
78.72
133.40
166.92
188.91
204.06
213.20
210.90
195.33
171.74
149.36
134.73
129.03
129.62
132.74
135.28
131.83
120.46
104.27
88.99
78.66
73.77
72.85
74.08
76.27
76.83
75.56
75.48
80.44
91.71
106.34
118.19
120.70
109.81
83.69
48.32
13.04
-13.49
-27.24
-29.79
-26.03
-20.93
-17.18
-15.24
-13.84
-11.92
-9.47
-7.49
-7.18
-8.88
-11.86
-14.70
-15.84
-14.37
-10.62
-5.76
-1.29
1.47
1.91
0.21
-2.67
-5.29
-6.24
-4.76
-0.98
4.08
8.87
11.80
11.85
9.03
4.49
0.16
-2.38
-2.14
0.42
3.68
5.51
3.90
-2.71
-14.77
-31.31
-49.68
-65.22
-72.17
-65.39
-42.88
-7.84
31.26
63.26
78.62
73.44
51.35
21.49
-5.80
-23.31
-29.26
-27.23
-22.89
-20.71
-22.83
-28.63
-37.07
-47.01
-56.87
-64.37
-66.40
-60.28
-44.94
-23.64
-1.30
16.99
28.08
31.65
29.55
24.22
17.65
10.91
4.61
-0.27
-2.73
-2.20
0.82
4.68
7.25
6.93
3.29
-2.59
-8.50
-12.24
-12.44
-9.07
-3.40
2.62
7.24
9.73
10.74
11.94
15.17
21.56
30.80
41.15
49.98
54.94
54.75
49.84
42.11
34.12
28.25
26.31
29.23
36.75
46.92
56.14
59.87
54.16
37.63
12.74
-14.82
-38.41
-52.71
-56.89
-54.03
-48.92
-45.15
-43.52
-42.42
-39.83
-34.93
-28.95
-24.37
-23.05
-25.35
-30.34
-36.59
-42.65
-47.25
-48.74
-45.07
-34.50
-16.74
6.06
29.88
49.89
62.42
66.16
62.29
53.40
41.69
29.37
17.56
7.17
-0.71
-4.99
-5.51
-3.26
0.01
2.38
3.03
2.21
1.34
2.29
6.90
16.20
30.15
46.99
63.00
73.26
73.07
60.29
36.31
7.08
-20.24
-39.83
-49.31
-50.04
-45.51
-39.45
-34.13
-30.21
-27.67
-26.69
-27.57
-30.21
-33.81
-36.64
-37.11
-34.50
-29.35
-23.74
-20.41
-21.87
-28.95
-39.77
-49.67
-52.46
-42.45
-17.21
20.29
61.73
95.92
112.80
107.34
81.61
43.09
2.37
-30.80
-50.39
-55.06
-47.31
-31.64
-12.95
4.78
18.87
27.72
31.30
30.08
25.21
18.18
10.71
4.40
0.42
-0.60
1.02
4.13
7.06
8.27
7.05
3.85
-0.01
-2.86
-3.52
-1.87
1.14
3.92
5.07
4.07
1.55
-1.05
-2.26
-1.26
1.62
5.20
7.92
8.75
7.64
5.58
4.04
4.29
6.68
10.52
14.30
16.60
16.62
14.73
12.18
10.45
10.68
13.20
17.64
23.09
28.27
31.44
30.67
24.31
11.76
-5.38
-23.38
-37.35
-43.34
-40.47
-31.64
-22.24
-17.67
-20.63
-29.48
-39.54
-46.00
-46.78
-43.25
-39.61
-39.50
-42.99
-46.95
-46.48
-37.94
-20.85
2.07
26.67
49.37
68.15
81.88
89.14
87.90
76.34
54.54
25.71
-4.32
-29.05
-43.70
-47.70
-44.01
-36.99
-30.26
-25.47
-22.46
-20.65
-19.89
-20.62
-23.26
-27.21
-30.88
-31.52
-26.76
-15.60
1.24
21.78
43.65
64.51
82.00
93.58
96.53
88.70
69.86
42.69
12.58
-14.16
-32.04
-39.48
-38.51
-33.07
-26.80
-21.55
-17.27
-13.22
-9.14
-5.71
-4.05
-4.72
-7.09
-9.67
-10.96
-9.94
-6.84
-2.80
0.65
2.30
1.82
-0.08
-2.08
-2.92
-1.89
0.73
3.96
6.54
7.47
6.60
4.65
2.88
2.42
3.83
6.71
9.90
12.02
12.08
9.98
6.50
2.93
0.37
-0.83
-1.28
-2.32
-5.45
-11.55
-20.56
-31.62
-43.12
-53.09
-59.36
-60.22
-55.14
-45.29
-33.64
-24.20
-20.56
-24.26
-33.87
-45.17
-52.72
-52.03
-41.31
-22.11
1.36
23.93
41.39
51.35
54.04
51.39
45.78
39.01
32.02
25.12
18.67
13.40
10.15
9.48
11.04
13.60
15.54
15.59
13.40
9.63
5.63
2.78
1.86
2.79
4.68
6.30
6.64
5.30
2.68
-0.29
-2.55
-3.37
-2.68
-1.05
0.52
1.08
0.12
-2.19
-5.03
-7.30
-8.05
-6.97
-4.50
-1.78
-0.14
-0.49
-2.85
-6.19
-8.86
-9.17
-6.25
-0.47
6.60
12.90
16.79
17.84
17.21
17.01
19.50
26.19
37.07
50.40
63.04
71.34
72.14
64.10
48.36
28.47
9.25
-4.91
-11.74
-11.87
-8.30
-5.06
-5.39
-10.77
-20.58
-32.43
-42.82
-48.38
-46.85
-38.18
-24.84
-10.90
-0.65
3.28
0.94
-5.09
-11.94
-18.36
-25.35
-35.18
-48.64
-63.56
-74.66
-75.78
-62.22
-33.85
4.10
42.20
69.31
76.84
61.92
29.07
-11.10
-45.73
-64.79
-64.63
-47.94
-23.53
-0.24
16.70
26.67
31.97
34.96
36.23
34.68
29.64
22.68
18.17
21.38
34.90
56.76
80.03
94.97
92.74
69.46
28.92
-17.90
-56.46
-74.08
-64.70
-31.45
14.28
57.18
83.47
86.06
66.31
32.29
-5.18
-36.78
-57.60
-67.45
-68.02
-63.47
-56.58
-48.06
-37.73
-26.06
-14.91
-6.91
-4.01
-6.16
-11.41
-16.45
-18.46
-16.30
-11.02
-4.96
-0.61
0.60
-1.24
-4.90
-8.43
-10.25
-9.80
-7.58
-4.77
-2.51
-1.51
-1.81
-3.10
-4.71
-6.10
-7.00
-7.38
-7.36
-7.04
-6.56
-6.04
-5.68
-5.60
-5.91
-6.73
-8.24
-10.58
-13.49
-16.06
-16.71
-13.77
-6.32
5.14
18.44
30.52
38.63
41.52
39.72
35.09
29.75
25.17
21.62
18.55
15.19
11.20
6.81
2.62
-0.86
-3.49
-5.41
-7.02
-8.54
-9.88
-10.80
-11.19
-11.20
-11.25
-11.71
-12.48
-12.97
-12.36
-10.05
-6.04
-0.92
4.61
10.07
15.60
21.57
28.16
34.81
40.78
45.12
47.15
46.90
44.80
41.68
38.36
35.50
33.62
33.63
36.58
43.11
52.26
60.88
64.23
57.69
39.34
11.48
-19.88
-46.96
-63.64
-67.91
-62.34
-52.34
-43.33
-38.46
-38.20
-40.87
-44.56
-48.46
-52.82
-58.41
-65.70
-74.40
-82.76
-90.81
-98.88
-107.47
-116.32
-123.43
-124.96
-116.72
-96.50
-65.92
-30.69
1.87
25.67
38.34
41.80
40.56
39.12
40.03
43.32
47.49
51.34
54.59
57.95
62.49
68.96
77.58
87.88
98.35
106.43
109.13
104.02
90.55
71.05
50.22
33.13
23.06
19.93
20.48
20.44
16.48
7.36
-6.43
-23.42
-41.76
-58.77
-70.82
-73.71
-64.37
-42.91
-14.09
14.19
34.26
41.34
37.51
29.84
26.46
32.15
46.09
62.08
72.08
70.51
56.05
32.38
6.17
-15.65
-28.50
-31.55
-26.14
-16.49
-6.02
3.95
13.85
24.09
33.88
41.04
43.21
38.75
28.53
15.06
1.25
-10.79
-20.48
-28.60
-36.53
-43.98
-51.98
-60.41
-68.48
-75.20
-80.09
-83.06
-84.33
-84.23
-83.17
-81.96
-81.15
-81.23
-82.24
-84.08
-86.34
-88.78
-91.62
-94.92
-97.79
-97.31
-90.57
-73.65
-46.68
-14.39
15.46
35.45
42.10
37.46
27.80
19.89
17.32
18.95
21.57
23.51
26.79
36.02
54.73
81.93
111.22
133.62
141.67
133.19
112.07
85.66
60.80
40.94
26.16
14.43
4.91
-1.41
-2.36
3.47
14.97
28.54
39.41
43.93
41.09
32.55
21.28
10.38
2.01
-3.01
-4.81
-3.95
-0.86
4.31
11.31
19.21
26.07
29.09
25.53
13.84
-5.13
-27.80
-49.15
-64.67
-72.14
-72.06
-66.40
-57.10
-45.01
-30.19
-12.97
4.75
19.28
26.34
22.79
8.98
-11.02
-30.53
-43.48
-46.31
-39.66
-27.85
-16.58
-10.06
-9.23
-11.57
-12.74
-9.61
-1.61
8.99
18.79
25.41
28.64
30.11
31.73
34.39
37.43
39.26
38.40
34.37
27.88
20.50
13.90
9.05
6.02
4.09
2.40
0.32
-2.06
-4.08
-4.80
-3.46
0.13
5.65
12.01
18.13
23.15
26.64
28.52
28.96
28.16
26.24
23.17
18.92
13.55
7.27
0.34
-6.88
-14.04
-20.75
-26.62
-31.20
-34.10
-35.05
-34.02
-31.40
-27.84
-24.17
-21.15
-19.20
-18.37
-18.36
-18.80
-19.42
-20.23
-21.40
-23.16
-25.72
-29.15
-33.43
-38.34
-43.23
-46.92
-47.96
-44.98
-37.75
-27.48
-16.75
-8.34
-4.21
-4.52
-7.79
-11.66
-13.74
-12.67
-8.38
-1.77
5.89
13.40
19.96
25.12
28.75
31.20
32.91
34.31
35.75
37.55
39.94
42.98
46.48
48.33
46.90
41.48
32.58
21.67
10.52
0.68
-6.93
-12.22
-15.69
-17.98
-19.75
-21.60
-23.89
-26.60
-29.43
-31.87
-33.54
-34.29
-34.13
-33.35
-32.32
-31.32
-30.25
-28.69
-26.11
-22.24
-17.31
-11.97
-7.16
-3.59
-1.57
-0.58
0.41
2.50
6.16
10.90
15.42
18.13
17.81
14.17
8.32
2.05
-2.84
-5.22
-4.68
-1.35
4.15
10.45
15.22
16.06
10.83
-1.07
-17.87
-35.39
-48.45
-53.21
-49.05
-38.67
-25.98
-14.92
-7.52
-3.21
0.53
6.39
15.17
25.24
33.70
39.74
44.88
52.41
65.27
84.58
109.06
135.65
160.94
174.96
171.86
152.47
123.76
93.09
64.24
37.67
12.99
-9.31
-27.86
-40.17
-45.00
-43.19
-38.06
-33.72
-33.24
-37.77
-46.39
-56.39
-63.17
-62.40
-51.70
-32.12
-7.51
16.94
36.27
47.13
48.47
42.17
29.59
15.49
3.05
-6.58
-13.73
-19.39
-24.58
-29.92
-35.12
-39.42
-41.75
-41.85
-40.07
-37.27
-34.58
-33.17
-33.80
-36.23
-39.39
-41.49
-41.26
-37.93
-31.32
-21.97
-11.49
-2.51
1.80
-1.21
-11.84
-27.68
-43.46
-52.68
-50.23
-34.99
-10.60
15.79
36.35
45.68
42.65
30.72
15.67
4.68
2.10
8.08
19.17
30.26
36.89
37.06
31.58
23.25
15.31
9.83
7.53
8.17
11.29
16.56
23.33
30.21
34.98
35.22
29.32
17.58
2.60
-11.54
-20.89
-23.39
-19.75
-13.10
-7.76
-6.86
-10.90
-17.76
-24.19
-27.66
-27.56
-25.03
-22.05
-19.55
-17.46
-14.94
-11.41
-7.22
-3.55
-1.51
-1.31
-1.94
-1.81
0.17
3.83
7.87
10.62
10.93
8.78
5.03
0.88
-2.68
-5.09
-6.15
-5.79
-4.07
-1.37
1.58
3.70
4.09
2.54
-0.09
-2.17
-2.10
0.83
6.00
11.73
16.12
18.01
17.63
16.51
16.23
18.10
22.36
28.08
33.75
38.06
40.53
41.67
42.47
43.53
44.43
43.90
40.53
33.46
22.67
8.84
-7.05
-23.11
-36.46
-44.48
-45.87
-40.98
-31.13
-17.96
-3.20
11.31
23.35
32.03
36.57
36.58
32.47
25.40
16.74
7.38
-3.00
-14.39
-26.84
-40.09
-53.16
-64.39
-71.89
-74.11
-70.15
-60.38
-45.83
-28.16
-9.53
7.56
20.89
28.92
30.92
26.68
15.50
-2.73
-26.84
-53.85
-79.48
-99.32
-110.23
-111.57
-101.14
-80.89
-56.06
-33.00
-15.93
-6.16
-2.69
-3.74
-7.49
-12.57
-18.33
-24.09
-30.40
-36.80
-43.43
-50.87
-59.30
-67.31
-71.85
-69.48
-58.09
-38.06
-11.54
18.89
51.97
86.87
122.60
156.09
181.30
189.78
173.55
129.04
59.94
-22.55
-102.92
-165.81
-199.95
-199.30
-164.14
-100.68
-19.48
66.40
144.12
203.38
238.37
242.31
215.66
167.60
112.69
64.13
28.59
6.13
-6.67
-13.60
-17.44
-19.05
-18.89
-18.33
-19.28
-23.30
-30.50
-38.89
-44.49
-42.88
-30.14
-5.43
27.45
61.59
89.44
105.75
108.99
100.71
83.92
62.17
40.03
19.60
3.88
-4.13
-2.98
6.09
18.70
29.13
32.42
27.51
17.01
6.15
-0.01
0.86
7.02
12.98
11.56
-3.27
-33.69
-76.83
-124.56
-165.97
-190.99
-193.96
-175.60
-142.33
-103.48
-67.35
-38.96
-19.12
-5.64
4.51
13.56
21.96
28.60
31.45
28.97
20.71
7.70
-7.61
-22.29
-34.04
-42.25
-48.24
-53.89
-59.88
-64.77
-65.20
-57.74
-41.40
-18.73
5.00
24.62
37.81
46.36
54.22
64.86
78.73
92.22
99.52
95.94
80.55
55.99
29.76
8.97
-2.24
-3.85
0.49
5.84
8.14
5.18
-3.35
-15.79
-28.96
-37.92
-36.71
-21.26
8.20
45.67
80.97
103.05
104.76
86.09
53.13
18.20
-8.46
-22.69
-26.65
-25.87
-25.06
-25.47
-25.20
-21.66
-13.78
-3.60
5.15
9.05
6.80
-0.71
-11.36
-23.05
-34.33
-43.78
-50.05
-51.24
-45.62
-32.91
-15.15
3.61
18.93
27.56
29.38
26.60
22.36
18.91
16.85
15.41
13.56
10.99
8.19
6.16
5.49
5.91
6.61
6.44
4.53
0.61
-4.71
-10.44
-15.30
-18.32
-19.20
-18.08
-15.09
-9.94
-2.22
7.70
17.73
24.24
23.25
12.53
-6.66
-29.44
-49.08
-59.92
-59.45
-49.77
-35.51
-21.34
-9.88
-1.40
5.14
10.71
15.31
18.10
18.41
16.45
13.39
10.78
9.92
10.88
12.41
12.62
10.20
5.31
-0.02
-2.78
-0.54
7.22
18.95
31.83
43.12
51.08
54.84
53.97
47.88
36.09
18.91
-1.86
-23.01
-40.78
-52.05
-55.42
-51.40
-42.04
-30.09
-18.41
-9.20
-3.71
-2.02
-3.14
-5.51
-7.65
-8.71
-8.60
-7.57
-5.77
-3.14
0.34
4.35
8.09
10.54
11.03
9.71
7.43
5.30
4.04
3.66
3.69
3.69
3.72
4.18
5.54
7.73
9.93
10.89
9.72
6.45
2.16
-1.57
-3.50
-3.30
-1.68
0.05
0.65
-0.39
-2.74
-5.31
-6.82
-6.41
-4.09
-0.74
2.24
3.56
2.57
-0.51
-4.52
-7.97
-9.39
-7.66
-1.95
7.61
19.30
29.25
32.04
23.14
1.05
-30.87
-64.71
-90.62
-100.92
-93.17
-70.07
-39.63
-10.28
11.34
21.37
18.45
3.19
-21.74
-51.63
-80.04
-100.92
-109.24
-102.98
-83.40
-54.12
-19.63
15.74
48.38
75.85
96.87
111.81
122.03
128.90
132.65
131.88
124.21
107.77
82.74
51.67
19.18
-9.78
-31.55
-44.54
-49.37
-48.25
-44.09
-39.63
-36.84
-36.42
-37.97
-40.35
-42.21
-42.45
-40.42
-35.93
-29.38
-21.84
-14.88
-10.09
-8.25
-8.51
-8.14
-3.45
8.37
27.55
51.10
73.78
90.15
96.68
92.98
81.45
65.98
50.07
35.96
24.49
15.82
10.07
7.55
8.54
12.04
16.86
21.38
24.12
24.44
22.86
20.82
19.82
20.65
22.79
24.70
24.38
20.40
12.69
2.77
-6.83
-13.50
-15.58
-13.00
-7.08
-0.09
5.81
9.30
10.27
9.54
8.20
6.98
5.96
4.73
2.73
-0.32
-4.28
-8.72
-13.23
-17.60
-21.89
-26.17
-30.30
-33.87
-36.28
-37.12
-36.33
-34.24
-31.32
-27.89
-23.93
-19.12
-13.17
-6.15
1.48
9.00
15.82
21.77
27.15
32.61
38.69
45.61
53.08
60.55
67.46
73.61
79.26
85.11
91.97
100.51
110.94
122.99
136.13
149.72
163.28
176.47
189.08
200.99
212.19
222.88
233.43
243.97
253.74
260.66
261.27
251.56
228.31
190.36
139.18
78.46
12.93
-53.02
-116.23
-175.01
-228.73
-277.08
-319.68
-355.94
-385.48
-408.51
-426.01
-439.33
-449.53
-456.72
-459.96
-457.78
-449.15
-434.29
-414.71
-392.36
-368.54
-343.19
-315.31
-284.10
-250.23
-216.11
-185.01
-159.40
-139.62
-123.62
-107.96
-89.52
-66.81
-40.48
-12.70
13.96
37.53
57.16
72.97
85.57
95.58
103.44
109.34
113.47
116.09
117.55
118.10
117.88
116.99
115.80
115.17
116.50
121.26
130.44
143.98
160.56
177.99
193.76
205.65
212.21
212.83
207.77
197.99
185.00
170.58
156.35
143.35
131.80
121.24
110.78
99.62
87.35
74.09
60.33
46.69
33.78
22.01
11.64
2.71
-4.84
-11.19
-16.51
-21.07
-25.05
-28.61
-31.75
-34.32
-36.10
-36.94
-36.94
-36.43
-35.99
-36.07
-36.84
-38.03
-39.05
-39.28
-38.32
-36.15
-33.05
-29.44
-25.62
-21.72
-17.80
-13.86
-10.00
-6.32
-2.93
0.12
2.85
5.24
7.24
8.77
9.76
10.17
10.10
9.66
9.00
8.18
7.21
6.05
4.66
3.07
1.35
-0.43
-2.20
-4.01
-6.00
-8.42
-11.49
-15.32
-19.76
-24.40
-28.65
-31.92
-33.75
-33.96
-32.59
-29.89
-26.18
-21.86
-17.36
-13.07
-9.35
-6.37
-4.10
-2.34
-0.88
0.45
1.63
2.49
2.81
2.47
1.49
0.06
-1.51
-2.92
-3.88
-4.27
-4.09
-3.50
-2.73
-2.06
-1.78
-2.15
-3.31
-5.25
-7.77
-10.47
-12.95
-14.90
-16.24
-17.08
-17.60
-17.88
-17.76
-16.88
-14.90
-11.63
-7.20
-2.06
3.27
8.27
12.69
16.47
19.67
22.33
24.34
25.51
25.67
24.81
23.17
21.08
18.92
16.97
15.35
14.10
13.25
12.80
12.77
13.09
13.59
14.01
14.13
13.83
13.14
12.19
11.16
10.18
9.38
8.84
8.70
9.11
10.21
12.05
14.61
17.73
21.25
25.00
28.87
32.72
36.41
39.74
42.46
44.34
45.28
45.25
44.38
42.84
40.83
38.48
35.91
33.12
30.11
26.86
23.38
19.72
15.95
12.16
8.40
4.71
1.12
-2.35
-5.64
-8.73
-11.64
-14.41
-17.17
-19.95
-22.76
-25.46
-27.86
-29.72
-30.84
-31.04
-30.20
-28.28
-25.35
-21.68
-17.66
-13.77
-10.41
-7.85
-6.15
-5.18
-4.79
-4.86
-5.33
-6.17
-7.26
-8.40
-9.34
-9.85
-9.91
-9.72
-9.59
-9.86
-10.67
-11.96
-13.47
-14.88
-15.93
-16.54
-16.82
-16.99
-17.34
-18.14
-19.56
-21.69
-24.51
-27.81
-31.30
-34.54
-37.12
-38.69
-39.09
-38.34
-36.64
-34.27
-31.52
-28.62
-25.70
-22.76
-19.75
-16.65
-13.47
-10.32
-7.39
-4.93
-3.18
-2.27
-2.13
-2.46
-2.77
-2.52
-1.33
0.92
4.04
7.61
11.20
14.50
17.45
20.18
22.90
25.71
28.51
31.02
32.89
33.78
33.62
32.58
31.12
29.81
29.21
29.66
31.22
33.64
36.55
39.51
42.16
44.21
45.42
45.77
45.36
44.42
43.19
41.82
40.28
38.42
36.03
33.05
29.74
26.58
23.90
21.75
19.80
17.54
14.55
10.76
6.44
2.47
-0.40
-2.06
-3.25
-5.17
-8.85
-14.55
-21.66
-29.11
-35.06
-38.21
-38.47
-37.00
-35.57
-35.46
-36.87
-39.02
-40.73
-39.87
-35.09
-26.50
-15.89
-5.73
2.09
7.32
11.41
17.01
29.00
52.07
88.99
139.11
198.08
258.94
313.99
356.62
372.06
351.25
294.58
213.58
125.78
46.08
-18.18
-66.46
-101.49
-126.34
-141.61
-147.37
-144.70
-136.48
-126.71
-118.74
-114.08
-112.37
-112.26
-111.08
-106.87
-99.16
-89.23
-79.35
-71.43
-66.21
-63.27
-61.65
-59.65
-56.01
-50.42
-43.59
-36.76
-30.98
-26.60
-23.43
-21.06
-18.88
-16.40
-13.50
-10.32
-7.06
-3.80
-0.45
2.96
6.18
8.73
10.21
10.41
9.53
8.12
6.97
6.64
7.08
7.52
6.59
3.10
-3.34
-12.07
-21.42
-29.52
-34.82
-36.87
-36.55
-35.84
-36.98
-42.19
-52.93
-69.12
-88.39
-106.06
-116.12
-112.47
-94.02
-64.18
-30.17
-0.37
19.47
28.51
30.69
32.52
39.51
53.93
74.26
95.87
112.72
119.24
111.77
89.50
55.09
14.69
-23.43
-51.17
-62.93
-57.62
-38.74
-12.95
12.66
31.71
41.69
43.24
38.72
30.70
21.09
11.31
2.67
-3.39
-5.50
-3.22
2.36
8.77
13.34
14.55
12.37
8.36
4.58
2.57
3.05
6.11
11.63
19.36
28.12
35.48
37.82
31.53
15.19
-9.57
-38.25
-65.39
-86.65
-99.82
-104.07
-98.73
-82.90
-56.33
-21.20
16.73
49.00
67.45
67.52
50.98
25.42
0.68
-15.20
-18.93
-12.64
-2.18
5.88
7.10
0.75
-10.46
-22.11
-30.19
-32.93
-30.89
-25.95
-19.91
-13.55
-7.05
-0.62
4.61
6.88
5.07
-0.41
-7.44
-13.06
-15.07
-13.17
-8.97
-5.18
-3.95
-5.75
-9.28
-12.44
-13.49
-11.99
-8.83
-5.34
-2.40
0.25
3.84
9.60
17.61
26.22
32.22
32.24
24.38
9.71
-8.20
-24.16
-33.34
-33.21
-24.52
-10.89
2.72
12.08
15.06
12.34
6.83
2.20
1.07
4.09
9.67
15.04
17.97
17.98
16.23
14.41
13.41
12.99
12.27
11.17
10.93
13.59
20.59
31.74
45.10
57.74
67.47
72.53
72.67
68.74
62.21
54.52
46.68
39.20
31.80
24.54
16.88
8.05
-2.92
-16.54
-32.46
-48.97
-63.19
-71.51
-71.42
-63.09
-49.43
-34.87
-23.15
-15.62
-11.30
-8.32
-5.63
-4.03
-6.07
-14.15
-28.77
-47.19
-64.19
-73.91
-72.04
-57.66
-34.01
-7.41
15.61
29.46
33.06
29.40
23.43
19.13
17.53
16.68
13.25
4.86
-8.38
-23.45
-36.03
-42.35
-41.22
-33.73
-23.36
-14.28
-9.61
-10.09
-13.71
-17.01
-16.87
-12.11
-3.79
5.61
13.89
20.39
26.26
33.67
44.05
56.93
69.54
77.81
78.13
69.16
52.83
33.87
17.93
9.30
9.10
14.72
20.87
21.94
14.40
-1.54
-21.64
-38.86
-46.09
-38.01
-12.86
26.62
73.39
117.78
150.26
164.08
157.40
133.28
98.03
58.08
17.62
-21.95
-60.86
-98.21
-132.49
-162.36
-187.42
-208.02
-224.93
-238.36
-247.12
-248.43
-238.88
-216.15
-180.00
-131.90
-75.07
-14.85
40.87
82.51
101.63
94.04
61.89
14.21
-34.84
-69.12
-72.97
-37.89
31.86
119.04
200.15
254.55
271.69
253.39
211.17
160.12
112.29
73.28
43.05
19.48
1.25
-10.90
-15.37
-11.86
-2.69
7.34
12.89
11.00
2.46
-8.90
-18.19
-21.80
-18.77
-10.97
-2.20
3.66
4.41
0.35
-6.17
-12.01
-14.70
-13.30
-8.60
-2.73
2.02
4.10
3.31
0.49
-3.30
-7.57
-12.57
-18.72
-25.67
-32.03
-35.63
-34.62
-28.50
-18.56
-7.26
2.99
10.79
15.86
18.71
19.83
19.14
16.30
11.32
5.05
-1.04
-5.46
-7.42
-7.13
-5.53
-3.76
-2.70
-2.71
-3.57
-4.63
-5.19
-4.76
-3.22
-0.95
1.36
2.94
3.33
2.49
1.02
-0.25
-0.57
0.45
2.58
5.10
7.06
7.74
6.88
4.88
2.51
0.68
0.17
1.56
4.94
9.59
13.76
14.89
10.53
-0.70
-18.12
-38.87
-58.83
-73.99
-81.86
-82.10
-76.62
-67.87
-58.50
-50.36
-44.22
-39.73
-35.78
-31.04
-24.27
-15.47
-5.29
5.02
14.31
22.00
27.99
32.35
35.21
36.37
35.68
33.42
30.22
26.94
24.32
22.76
22.13
22.02
21.84
21.16
19.84
17.95
15.73
13.48
11.48
9.92
8.96
8.58
8.64
8.82
8.72
7.97
6.43
4.33
2.20
0.75
0.40
1.24
2.83
4.41
5.29
5.04
3.58
1.10
-2.01
-5.02
-6.71
-5.58
-0.35
9.25
21.94
35.07
45.54
51.23
51.44
47.25
40.55
33.06
25.56
17.95
9.92
1.63
-5.97
-11.53
-13.89
-12.80
-9.09
-4.57
-1.38
-1.18
-4.39
-10.12
-16.54
-21.71
-24.56
-25.34
-25.43
-26.63
-30.22
-36.30
-43.53
-49.74
-52.46
-49.81
-41.16
-27.41
-10.80
5.68
19.46
29.05
34.22
35.64
34.17
30.40
24.49
16.67
7.58
-1.17
-7.58
-10.14
-8.60
-4.19
0.76
3.81
3.22
-1.60
-9.50
-18.18
-25.12
-28.28
-26.74
-20.87
-12.21
-1.86
7.24
12.75
13.94
11.59
7.38
2.91
-0.97
-4.40
-8.11
-12.87
-18.50
-23.98
-27.97
-29.41
-28.11
-24.73
-20.97
-18.56
-18.69
-21.21
-24.68
-27.05
-26.23
-20.52
-8.65
9.32
32.18
56.71
78.08
90.89
91.20
78.48
55.48
30.02
9.93
-0.33
-1.12
3.62
9.09
12.37
13.52
14.60
17.73
22.96
28.33
31.07
29.23
22.35
11.17
-3.07
-18.74
-34.02
-46.52
-53.35
-52.06
-42.01
-25.23
-5.77
10.69
20.38
22.64
19.32
13.32
6.92
0.98
-4.59
-9.84
-14.15
-16.21
-15.08
-11.10
-5.97
-1.94
-0.75
-2.79
-6.83
-10.77
-12.54
-11.25
-7.51
-3.20
-0.44
-0.59
-3.56
-7.87
-11.38
-12.35
-10.40
-6.59
-3.02
-1.68
-3.58
-8.26
-13.96
-18.48
-20.00
-17.57
-11.04
-1.31
9.66
18.83
22.61
18.03
4.46
-15.56
-36.68
-52.47
-58.43
-54.16
-43.23
-32.07
-25.27
-22.63
-19.15
-8.22
14.00
45.73
79.82
107.03
120.20
117.05
100.12
74.69
45.40
16.20
-10.96
-35.08
-55.20
-70.47
-80.51
-85.97
-87.16
-83.99
-75.54
-60.83
-39.72
-14.02
12.14
33.61
45.74
46.06
35.35
16.20
-7.28
-30.15
-47.35
-55.00
-51.41
-38.11
-19.56
-1.49
11.84
19.81
25.42
33.08
45.18
59.51
70.43
72.02
62.44
45.77
30.02
22.28
24.40
31.98
37.39
34.65
23.03
7.26
-5.74
-11.10
-8.79
-3.05
0.54
-1.46
-8.55
-16.85
-21.70
-20.46
-13.71
-4.76
2.14
3.80
-0.71
-9.65
-19.41
-25.67
-24.72
-14.90
2.59
23.73
43.06
55.68
59.29
55.02
46.91
39.28
34.93
33.79
33.45
30.81
24.04
13.59
1.89
-8.09
-14.08
-15.35
-12.74
-8.21
-4.28
-3.56
-8.31
-19.67
-36.71
-55.81
-71.39
-77.80
-71.78
-54.18
-29.74
-5.16
14.02
24.77
28.18
27.41
25.13
22.12
17.51
10.54
1.81
-6.34
-10.97
-10.22
-4.43
4.17
12.73
18.67
20.10
15.80
5.47
-9.74
-26.75
-41.00
-48.05
-45.64
-35.06
-20.71
-8.16
-0.88
1.02
0.52
1.36
5.39
11.03
14.06
10.21
-2.22
-20.89
-40.42
-54.79
-60.14
-56.95
-49.13
-41.71
-38.06
-38.19
-38.98
-36.59
-29.35
-18.52
-7.78
0.72
8.40
19.45
37.19
60.27
81.79
93.06
88.89
71.46
48.92
30.78
22.13
21.13
21.24
16.29
4.67
-9.56
-20.14
-23.11
-19.31
-13.50
-10.90
-14.03
-21.78
-30.79
-37.60
-40.35
-38.99
-34.27
-26.83
-16.52
-2.97
13.29
29.98
43.02
48.02
42.45
27.37
7.49
-10.87
-22.08
-24.27
-19.43
-11.66
-4.69
-0.09
2.83
5.64
9.22
13.15
15.91
16.13
13.38
8.57
3.43
-0.02
-0.62
1.60
5.63
9.74
12.48
12.97
10.98
6.54
-0.18
-8.45
-16.35
-20.57
-17.42
-4.62
16.85
42.50
65.57
79.82
82.09
73.39
58.03
40.77
25.83
14.37
5.29
-3.19
-12.00
-20.63
-27.52
-31.02
-30.34
-25.97
-19.92
-14.84
-13.05
-15.49
-21.29
-28.03
-32.79
-33.50
-29.74
-22.95
-15.21
-8.44
-3.86
-2.58
-6.20
-16.56
-34.52
-58.24
-82.74
-100.90
-106.48
-96.99
-75.16
-47.51
-21.09
0.11
16.62
32.15
50.21
70.61
88.67
96.88
89.14
64.80
30.51
-1.40
-18.30
-12.49
13.56
48.62
77.83
90.10
82.90
62.00
36.96
15.27
-0.91
-13.53
-24.45
-32.48
-33.40
-23.50
-3.74
19.14
35.46
37.92
25.34
4.01
-16.63
-28.82
-30.09
-23.39
-14.41
-8.37
-8.05
-13.60
-23.45
-35.32
-46.51
-53.92
-54.92
-48.34
-35.37
-19.65
-5.96
1.69
1.74
-4.24
-12.50
-18.97
-20.96
-18.29
-12.99
-8.20
-6.72
-9.80
-16.66
-25.06
-32.32
-36.29
-36.06
-32.01
-25.27
-17.38
-9.61
-2.70
3.03
7.60
11.50
15.56
20.68
27.26
34.39
40.06
42.18
39.86
34.22
28.42
26.58
32.28
47.09
68.99
92.84
111.64
118.75
110.20
86.36
51.98
13.65
-19.49
-41.40
-50.86
-50.72
-45.43
-38.63
-31.94
-25.49
-19.12
-13.17
-8.92
-7.49
-8.90
-12.04
-15.24
-16.95
-16.54
-14.33
-11.13
-8.13
-6.23
-5.67
-6.26
-7.50
-8.86
-9.89
-10.24
-9.58
-8.07
-5.97
-3.66
-1.62
-0.17
0.39
-0.53
-3.84
-10.27
-19.40
-28.79
-34.15
-31.25
-17.84
4.53
30.50
52.92
65.93
67.31
58.56
44.75
30.81
19.69
11.78
6.05
1.36
-2.58
-5.29
-6.23
-5.27
-3.07
-0.45
1.75
3.23
4.07
4.54
4.92
5.26
5.57
5.66
5.61
5.94
7.70
11.79
18.04
24.38
26.94
21.86
7.41
-14.25
-37.36
-54.79
-61.21
-55.41
-40.41
-21.80
-5.31
4.64
5.43
-3.72
-21.62
-44.69
-67.16
-82.44
-85.87
-76.48
-58.04
-37.48
-21.62
-14.41
-15.73
-22.55
-31.07
-38.55
-43.84
-46.66
-46.55
-42.33
-32.83
-17.91
0.94
20.88
38.85
52.91
62.85
69.39
73.66
75.65
74.11
67.60
55.89
40.80
25.73
14.14
7.96
6.92
8.83
11.07
11.77
10.52
8.08
5.72
4.30
4.17
5.11
6.43
7.47
7.62
6.12
1.96
-5.60
-16.16
-27.25
-34.53
-33.60
-22.03
-1.22
23.58
45.17
57.48
58.03
48.21
33.00
17.47
4.77
-4.47
-11.22
-16.66
-21.28
-24.76
-26.61
-26.65
-25.37
-23.50
-21.90
-21.01
-20.89
-21.16
-21.35
-20.93
-19.44
-16.77
-12.86
-7.47
0.09
10.65
24.29
39.49
52.84
60.02
57.45
44.25
23.07
-0.71
-21.08
-33.74
-37.47
-34.19
-27.18
-19.33
-12.09
-5.68
0.08
5.03
8.53
9.94
9.13
6.80
4.19
2.65
2.98
5.07
8.12
10.94
12.47
12.28
10.69
8.60
7.11
7.00
8.47
11.07
13.91
16.02
16.75
16.02
14.36
12.70
11.98
12.73
14.83
17.38
19.11
18.81
15.88
10.60
4.08
-2.27
-7.32
-10.77
-13.31
-16.23
-20.80
-27.73
-36.77
-46.76
-55.95
-62.41
-64.55
-61.29
-51.86
-36.00
-14.35
10.94
35.98
55.56
64.84
61.06
45.03
21.22
-3.97
-25.01
-39.28
-47.17
-50.02
-47.69
-37.94
-18.39
10.86
44.79
74.20
89.81
86.81
67.48
39.90
13.36
-6.85
-21.17
-34.32
-50.85
-70.93
-89.24
-97.81
-90.76
-66.42
-32.69
-0.69
20.28
26.68
21.34
11.10
2.53
-1.06
-0.49
0.72
-0.46
-4.96
-11.39
-17.21
-20.18
-19.62
-16.44
-12.75
-10.86
-11.97
-16.01
-21.79
-27.52
-31.38
-32.37
-30.45
-26.48
-21.89
-17.84
-14.76
-12.28
-9.31
-4.24
4.21
16.74
33.50
54.18
78.01
103.08
125.83
140.40
142.18
128.85
102.28
68.52
35.71
10.65
-3.79
-9.22
-9.93
-9.85
-10.66
-11.44
-10.36
-6.39
-0.60
4.45
6.20
3.36
-3.84
-14.49
-27.25
-40.51
-52.06
-59.00
-58.49
-49.25
-32.70
-12.82
5.07
16.36
19.49
16.00
9.17
2.00
-4.04
-9.07
-13.67
-17.94
-21.11
-22.14
-20.61
-17.21
-13.40
-10.62
-9.76
-10.54
-11.91
-12.58
-11.56
-8.60
-4.11
1.13
6.34
11.03
15.06
18.44
21.21
23.25
24.33
24.34
23.38
21.60
19.24
16.61
14.09
12.22
11.39
11.53
11.81
10.81
7.20
0.68
-7.56
-15.32
-20.49
-22.24
-21.57
-20.76
-22.02
-26.14
-32.07
-37.49
-40.22
-39.30
-35.39
-30.13
-25.20
-21.44
-18.72
-16.35
-13.56
-10.14
-6.41
-2.94
-0.07
2.36
4.99
8.58
13.48
19.29
24.87
28.78
29.88
27.81
23.12
17.08
11.09
6.21
2.85
0.80
-0.47
-1.42
-2.27
-2.93
-3.19
-2.87
-1.94
-0.47
1.40
3.48
5.58
7.44
8.81
9.53
9.60
9.15
8.39
7.39
6.07
4.25
1.80
-1.19
-4.44
-7.54
-10.19
-12.37
-14.28
-16.40
-18.89
-21.59
-24.04
-25.68
-26.14
-25.44
-23.93
-22.12
-20.42
-18.98
-17.69
-16.31
-14.59
-12.28
-9.08
-4.67
1.28
8.96
18.30
28.98
40.43
52.03
63.17
73.37
82.21
89.32
94.44
97.50
98.60
98.03
96.08
92.95
88.69
83.28
76.75
69.23
60.89
51.77
41.66
30.20
17.05
2.19
-14.04
-30.99
-48.01
-64.60
-80.49
-95.43
-109.11
-121.12
-131.09
-138.90
-144.76
-148.99
-151.80
-153.04
-152.14
-148.39
-141.32
-130.94
-117.93
-103.41
-88.54
-74.25
-61.02
-49.00
-38.13
-28.37
-19.79
-12.47
-6.48
-1.65
2.34
5.85
9.10
12.14
14.83
16.96
18.40
19.16
19.67
20.44
21.86
23.95
26.32
28.39
29.68
30.10
30.08
30.71
33.04
37.52
43.69
50.32
55.91
59.43
60.63
60.08
59.48
60.55
64.28
70.49
77.88
84.79
89.92
92.91
94.25
95.88
99.89
107.76
120.01
136.17
155.21
175.77
196.17
208.70
206.46
185.41
146.81
97.26
45.51
-1.33
-39.56
-68.50
-89.08
-101.81
-106.85
-104.97
-98.06
-89.10
-81.39
-77.70
-79.79
-88.12
-100.56
-112.58
-118.60
-113.80
-95.97
-66.89
-32.23
0.33
24.02
35.01
35.02
29.37
22.82
16.61
8.21
-6.01
-27.19
-53.26
-78.62
-96.85
-104.05
-100.46
-89.50
-75.67
-62.01
-49.23
-36.36
-22.20
-6.64
8.85
21.85
30.46
34.18
34.14
32.28
30.43
29.75
29.90
30.36
30.63
30.52
30.14
29.66
29.18
28.62
27.94
27.17
26.50
25.85
24.98
23.61
21.76
19.93
19.03
20.15
24.16
31.52
41.95
54.47
67.45
78.91
86.84
89.69
86.79
78.56
66.35
51.92
36.98
22.89
10.48
0.18
-7.88
-13.79
-17.78
-20.15
-21.31
-21.61
-21.46
-21.36
-21.85
-23.40
-26.06
-29.20
-31.60
-31.92
-29.39
-24.31
-18.09
-12.59
-9.24
-8.36
-9.17
-10.48
-11.48
-12.20
-13.19
-14.78
-16.53
-17.41
-16.47
-13.69
-10.24
-7.92
-8.08
-10.85
-15.11
-19.20
-21.86
-22.74
-22.31
-21.21
-19.69
-17.51
-14.29
-10.04
-5.48
-1.79
-0.21
-1.54
-5.95
-13.09
-22.31
-32.60
-42.59
-50.61
-54.87
-54.11
-48.37
-39.40
-30.28
-24.50
-24.61
-31.31
-43.44
-57.98
-70.95
-78.48
-77.87
-68.35
-51.10
-28.92
-5.54
14.64
28.18
33.30
30.05
19.92
5.30
-11.02
-26.39
-38.86
-48.30
-55.27
-60.42
-64.13
-66.57
-67.82
-67.86
-66.58
-64.04
-61.66
-60.61
-61.19
-62.51
-62.94
-60.58
-53.83
-41.97
-18.62
16.84
59.28
100.26
133.31
156.67
172.63
184.83
196.19
207.88
218.17
224.89
226.44
222.21
212.24
197.36
179.04
158.74
137.69
115.62
91.88
65.73
38.57
11.10
-16.73
-45.84
-77.84
-113.56
-152.46
-191.50
-225.68
-249.52
-259.37
-254.55
-237.32
-212.55
-185.16
-158.75
-134.91
-113.55
-93.81
-75.02
-57.22
-41.25
-29.54
-24.53
-27.45
-37.71
-52.75
-68.94
-83.03
-93.39
-94.72
-85.78
-68.99
-48.75
-29.06
-11.50
4.29
19.02
32.61
44.37
52.86
56.24
56.30
55.65
56.46
59.50
64.05
68.54
71.80
72.97
72.52
71.95
72.69
74.96
77.73
79.35
78.39
74.34
67.08
56.87
44.20
29.14
11.80
-7.20
-26.33
-43.16
-54.89
-59.34
-55.45
-43.36
-24.51
-1.03
24.97
51.81
78.29
103.50
126.36
145.60
160.03
168.71
171.13
167.14
156.82
140.52
118.99
93.68
66.70
40.43
16.75
-3.37
-19.99
-33.70
-45.04
-54.16
-60.99
-65.62
-68.66
-71.14
-73.98
-77.52
-81.27
-84.12
-84.91
-82.93
-78.09
-70.68
-61.20
-50.10
-37.66
-24.12
-9.88
4.16
16.38
24.64
26.89
21.88
9.71
-7.97
-28.57
-49.27
-68.02
-84.07
-97.54
-108.78
-118.00
-125.14
-130.10
-132.98
-134.03
-133.71
-133.04
-132.75
-132.90
-133.26
-133.37
-132.56
-129.96
-124.18
-114.07
-100.32
-84.37
-67.65
-51.78
-38.08
-27.18
-19.01
-12.22
-5.38
0.94
6.20
10.93
15.85
21.64
28.66
36.68
46.07
57.11
68.06
78.05
88.26
100.02
114.08
130.25
140.54
137.79
131.20
127.50
125.57
125.77
127.98
131.58
135.83
140.16
145.35
152.10
158.25
161.45
160.81
156.14
148.16
138.17
127.34
117.12
108.28
99.33
89.03
77.55
65.33
52.80
40.08
27.15
14.60
3.41
-6.34
-14.40
-20.18
-23.61
-25.10
-25.21
-24.41
-22.69
-19.90
-16.53
-13.11
-9.99
-7.46
-5.59
-4.19
-2.85
-1.13
1.19
3.77
6.06
7.62
8.23
7.83
6.53
4.48
1.71
-1.86
-6.35
-11.91
-18.62
-26.32
-34.58
-42.57
-49.08
-53.00
-53.82
-51.94
-48.61
-45.38
-43.35
-42.67
-42.42
-40.95
-36.82
-29.47
-19.36
-7.72
3.92
14.03
20.95
23.29
20.35
12.73
2.58
-6.54
-10.85
-8.62
-0.15
10.98
19.50
21.44
16.15
6.10
-4.98
-13.99
-19.68
-22.40
-23.57
-24.26
-24.85
-25.11
-24.68
-23.34
-21.22
-18.77
-16.14
-13.13
-9.04
-3.64
1.80
4.07
-0.93
-16.27
-42.04
-74.66
-107.72
-133.84
-147.62
-147.33
-134.83
-113.86
-88.29
-61.19
-33.59
-7.35
15.91
34.52
46.97
52.62
52.31
48.61
45.12
45.33
50.91
60.86
71.59
78.95
79.83
75.17
68.45
62.69
56.53
45.33
24.46
-7.53
-46.86
-85.52
-114.42
-125.72
-118.30
-97.48
-71.67
-47.95
-30.40
-20.28
-17.28
-20.18
-26.67
-33.63
-36.98
-32.76
-18.55
4.25
29.97
50.20
57.22
47.11
21.22
-13.72
-47.53
-68.98
-69.70
-46.04
-1.10
56.05
113.03
157.98
183.27
183.70
161.43
125.17
86.11
52.70
28.12
11.53
0.78
-5.48
-7.77
-6.10
-1.56
3.55
6.56
6.04
2.55
-1.81
-4.60
-4.38
-0.83
4.85
10.47
13.86
13.94
11.22
7.43
4.57
3.87
5.63
8.93
12.07
13.35
11.84
7.73
2.12
-3.60
-8.60
-12.84
-17.19
-22.88
-30.77
-40.70
-51.41
-60.69
-66.28
-66.97
-63.12
-56.63
-50.15
-45.89
-44.69
-46.00
-47.81
-47.90
-45.28
-40.91
-37.42
-38.10
-45.41
-59.93
-80.39
-103.35
-123.98
-137.51
-140.68
-132.98
-117.22
-98.99
-81.81
-70.54
-67.14
-69.11
-69.89
-61.58
-38.59
-0.58
46.90
94.65
133.35
158.09
169.95
174.56
178.53
185.84
195.57
201.89
196.80
173.91
132.66
79.70
27.25
-10.62
-22.50
-4.05
40.08
97.47
151.59
187.27
194.92
172.84
126.62
66.94
5.93
-46.40
-84.00
-104.78
-109.68
-101.55
-83.27
-60.52
-39.52
-24.76
-18.29
-20.30
-29.21
-41.85
-54.11
-62.44
-65.42
-63.77
-59.85
-56.45
-55.74
-57.94
-61.67
-65.12
-66.67
-65.69
-62.36
-57.16
-50.53
-42.35
-31.93
-17.97
0.11
21.55
43.82
63.20
75.76
78.57
69.58
51.82
30.94
12.79
1.29
-2.83
-1.63
1.64
4.31
5.48
6.19
7.81
10.86
14.44
16.72
16.07
12.14
6.04
-0.01
-3.37
-2.74
1.50
7.39
12.34
14.21
11.91
5.58
-3.99
-15.51
-27.33
-37.12
-42.19
-39.93
-29.56
-13.21
4.54
18.11
23.39
20.28
12.66
5.93
3.55
4.52
3.64
-4.97
-24.60
-53.42
-85.09
-111.53
-125.99
-124.96
-107.79
-78.02
-40.20
0.81
40.41
74.65
99.68
112.95
114.02
104.60
87.88
67.73
47.63
30.52
18.30
11.74
10.60
13.59
18.90
24.60
29.42
32.54
33.50
31.94
27.65
20.89
12.46
3.55
-4.88
-12.28
-18.60
-23.94
-28.21
-30.92
-31.45
-29.65
-26.19
-22.47
-19.87
-18.93
-19.06
-18.83
-16.77
-12.08
-5.04
3.21
11.31
17.76
21.91
24.02
25.01
26.05
28.07
31.43
35.72
39.87
42.56
42.71
39.82
34.07
26.25
17.39
8.58
0.62
-5.89
-10.61
-13.42
-14.45
-14.20
-13.40
-12.88
-13.24
-14.64
-16.74
-18.83
-20.14
-20.22
-19.26
-17.95
-17.11
-17.27
-18.32
-19.63
-20.38
-20.00
-18.44
-16.16
-13.82
-11.95
-10.77
-10.23
-10.15
-10.38
-10.82
-11.37
-11.83
-11.93
-11.30
-9.63
-6.67
-2.23
3.62
10.63
18.35
26.25
33.93
41.18
48.11
54.95
61.93
69.11
76.35
83.27
89.41
94.35
98.07
101.19
104.97
110.96
120.34
133.12
147.82
161.65
171.42
174.53
169.73
157.15
137.89
113.46
85.54
56.12
27.60
2.54
-17.06
-30.63
-39.46
-46.27
-54.14
-65.24
-79.95
-96.92
-113.78
-128.14
-138.32
-143.69
-144.61
-142.12
-137.71
-132.98
-129.33
-127.80
-128.94
-132.83
-139.15
-147.21
-155.74
-162.96
-166.72
-165.11
-157.09
-143.23
-125.79
-108.21
-94.00
-85.51
-83.20
-85.64
-90.41
-95.27
-99.01
-101.71
-104.08
-106.56
-108.64
-108.87
-105.54
-97.71
-85.77
-71.43
-56.96
-44.30
-34.40
-27.16
-21.77
-17.20
-12.61
-7.42
-1.27
5.96
14.14
22.75
30.92
37.49
41.48
42.43
40.71
37.56
34.69
33.82
36.24
42.66
53.20
67.54
84.91
104.00
122.91
139.27
150.84
156.15
155.06
148.79
139.42
129.10
119.25
110.28
101.71
92.83
83.32
73.53
64.14
55.86
49.04
43.62
39.34
35.75
32.63
30.05
28.34
27.91
29.06
31.87
36.15
41.47
46.96
51.97
56.36
60.67
65.83
72.59
81.15
91.00
101.09
109.46
114.75
116.82
116.78
116.18
116.21
117.31
119.34
121.96
122.99
120.63
113.94
103.15
88.75
70.83
49.15
23.64
-5.09
-38.43
-76.44
-117.28
-157.09
-191.70
-218.56
-237.41
-249.95
-259.39
-273.62
-299.71
-341.73
-398.26
-462.79
-525.72
-576.87
-608.25
-594.38
-524.61
-408.43
-273.43
-148.42
-49.00
23.81
76.67
117.22
151.11
177.76
199.26
218.59
238.79
260.30
279.25
289.36
285.60
267.39
232.62
188.23
145.22
113.38
96.76
92.94
96.16
100.91
103.35
99.24
86.14
63.94
35.43
6.74
-14.47
-21.80
-12.65
10.27
39.95
65.60
78.50
76.10
62.07
43.11
25.19
11.32
1.59
-5.45
-10.51
-12.96
-12.04
-8.22
-4.10
-3.58
-10.33
-25.74
-48.38
-73.98
-96.94
-112.44
-117.90
-113.32
-100.84
-83.86
-66.16
-50.89
-40.01
-33.58
-30.33
-28.17
-24.89
-18.83
-9.32
3.29
17.62
30.53
38.05
36.19
23.28
2.14
-19.58
-31.54
-26.19
-1.03
39.61
86.31
127.39
153.47
160.49
150.35
129.13
104.20
81.74
63.12
49.68
41.38
37.11
34.96
32.47
27.06
16.60
0.12
-21.84
-46.10
-68.59
-85.87
-96.59
-101.76
-103.80
-105.12
-106.71
-107.66
-104.28
-92.11
-67.81
-30.74
16.63
69.34
121.05
165.35
191.76
192.63
167.80
126.28
81.41
43.80
17.85
2.58
-5.50
-9.88
-11.75
-10.90
-7.23
-1.90
3.03
5.73
5.66
3.56
0.78
-0.61
0.82
5.08
10.64
15.23
17.20
16.10
12.68
8.10
3.92
1.12
-0.50
-2.27
-5.95
-12.57
-21.90
-32.63
-43.31
-52.29
-58.73
-62.90
-66.08
-69.69
-74.49
-80.19
-85.71
-90.53
-94.11
-96.80
-99.79
-104.60
-112.54
-124.46
-140.86
-161.86
-187.37
-215.06
-240.50
-257.99
-262.32
-250.66
-223.64
-185.00
-136.49
-84.43
-34.59
9.68
47.46
79.54
107.34
132.21
155.53
179.05
204.57
234.62
270.64
311.12
350.59
380.53
392.43
381.54
349.52
303.79
255.50
214.79
186.97
171.53
163.67
157.47
148.45
134.48
115.03
90.40
60.78
26.19
-12.89
-54.74
-96.00
-131.68
-156.58
-167.10
-162.49
-145.32
-120.22
-91.14
-59.07
-21.65
24.60
80.34
140.43
194.04
228.46
234.79
212.65
170.78
123.42
84.08
60.12
50.94
49.98
49.13
42.63
28.49
7.23
-20.60
-56.15
-101.27
-155.85
-215.34
-270.57
-310.74
-328.05
-321.48
-297.53
-267.69
-243.76
-233.46
-238.09
-252.93
-269.79
-280.13
-277.52
-258.68
-223.62
-174.92
-117.25
-56.61
0.46
47.98
81.49
98.97
101.28
91.97
76.25
59.44
45.56
36.40
31.53
28.95
26.13
20.94
12.51
1.73
-9.00
-16.29
-17.01
-9.53
5.50
24.78
42.48
51.06
43.14
14.22
-34.42
-94.39
-151.83
-191.82
-204.30
-188.33
-152.48
-110.82
-76.68
-57.12
-51.08
-51.69
-50.61
-42.09
-24.47
0.61
29.79
58.68
81.92
93.26
87.17
61.64
20.44
-26.51
-66.15
-87.09
-83.86
-58.37
-17.98
28.39
73.89
114.93
150.28
178.86
198.46
205.92
198.69
176.49
142.19
101.41
60.80
26.17
0.96
-14.66
-23.15
-28.23
-33.13
-39.09
-44.98
-48.07
-45.50
-35.76
-19.45
0.81
21.45
39.19
52.07
59.75
63.32
64.58
65.40
67.30
70.99
76.56
83.33
89.94
94.74
96.64
96.00
94.92
96.92
105.30
121.19
142.31
162.92
175.26
171.89
148.16
104.08
44.90
-19.80
-78.38
-120.27
-138.75
-132.58
-105.70
-65.09
-17.88
31.03
79.73
128.15
176.09
221.79
261.91
292.64
311.35
317.56
312.87
300.14
282.48
262.64
242.62
223.65
205.95
188.60
169.54
146.07
115.77
77.43
31.61
-19.45
-72.30
-122.91
-167.22
-201.63
-223.87
-233.69
-233.28
-226.81
-219.09
-213.80
-212.36
-213.96
-216.75
-219.41
-221.90
-225.06
-229.29
-233.51
-235.10
-231.12
-219.97
-202.24
-180.67
-158.55
-138.46
-121.20
-105.96
-91.03
-74.72
-56.06
-35.07
-12.89
8.05
24.08
31.00
25.78
8.29
-17.73
-45.64
-68.47
-81.77
-85.38
-82.73
-78.60
-76.56
-77.63
-80.60
-83.42
-84.54
-83.45
-80.38
-75.85
-70.47
-65.00
-60.72
-58.89
-60.21
-64.16
-69.03
-72.55
-72.71
-68.32
-59.23
-46.13
-30.31
-13.45
2.59
16.04
25.60
30.68
31.58
29.32
25.41
21.33
18.12
16.02
14.48
12.52
9.18
4.22
-1.73
-7.32
-10.94
-11.35
-8.06
-1.51
7.27
16.99
26.55
35.33
43.33
51.09
59.31
68.40
78.11
87.33
94.56
98.43
98.25
94.27
87.43
79.03
70.35
62.58
56.86
54.41
56.32
63.18
74.59
88.82
102.91
113.33
116.91
111.89
98.60
79.58
58.91
40.88
28.51
22.56
21.23
20.96
17.79
8.94
-6.27
-26.22
-47.69
-67.01
-81.29
-89.14
-90.72
-87.35
-80.77
-72.63
-64.30
-56.65
-50.13
-44.88
-40.79
-37.61
-35.12
-33.21
-31.84
-30.94
-30.35
-29.83
-29.16
-28.26
-27.14
-25.79
-24.04
-21.44
-17.39
-11.29
-2.71
8.65
22.96
40.14
59.61
80.08
99.53
115.58
126.04
129.45
125.48
114.86
99.15
80.30
60.42
41.50
25.16
12.47
3.72
-1.53
-4.34
-5.88
-7.12
-8.64
-10.60
-12.87
-15.16
-17.07
-18.16
-18.02
-16.31
-12.95
-8.15
-2.41
3.66
9.46
14.60
18.96
22.58
25.57
27.93
29.55
30.30
30.06
28.90
27.01
24.57
21.64
18.11
13.73
8.41
2.30
-4.11
-10.17
-15.32
-19.31
-22.15
-24.09
-25.50
-26.74
-28.16
-30.07
-32.66
-35.89
-39.43
-42.85
-45.77
-48.10
-50.04
-51.91
-53.86
-55.63
-56.63
-56.22
-53.97
-49.86
-44.23
-37.55
-30.28
-22.83
-15.60
-8.98
-3.33
1.15
4.50
6.97
8.83
10.24
11.07
10.92
9.32
5.79
0.15
-7.10
-14.56
-19.81
-19.93
-12.50
3.33
26.20
52.80
78.84
100.44
115.11
122.06
121.96
116.32
106.98
95.79
84.47
74.36
66.19
59.93
54.93
50.30
45.43
40.19
34.90
30.03
25.96
22.93
21.01
20.19
20.43
21.52
23.14
24.77
25.84
25.89
24.71
22.37
19.19
15.55
11.79
8.07
4.39
0.71
-2.91
-6.29
-9.10
-11.04
-12.04
-12.33
-12.36
-12.63
-13.43
-14.75
-16.32
-17.88
-19.31
-20.79
-22.65
-25.20
-28.42
-31.87
-34.75
-36.15
-35.27
-31.76
-25.81
-17.98
-9.12
-0.17
8.06
15.12
20.91
25.59
29.36
32.22
33.96
34.13
32.24
28.01
21.62
13.72
5.29
-2.78
-9.95
-16.06
-21.48
-26.85
-32.74
-39.32
-46.23
-52.59
-57.26
-59.14
-56.96
-50.20
-39.44
-26.43
-13.68
-3.72
1.51
1.31
-3.67
-10.48
-15.77
-16.90
-12.74
-3.67
8.92
23.30
37.83
51.41
65.11
79.95
96.01
111.94
125.67
135.42
140.56
141.66
140.15
139.56
142.30
148.58
156.58
164.19
170.57
176.71
184.57
182.82
164.04
126.64
76.05
20.72
-32.31
-78.84
-116.74
-145.26
-164.88
-174.99
-175.87
-169.03
-157.44
-144.75
-135.02
-132.00
-138.21
-153.78
-174.30
-193.06
-203.81
-204.55
-195.68
-180.22
-162.31
-145.30
-130.53
-116.64
-101.65
-85.20
-69.10
-55.92
-47.45
-43.46
-41.75
-39.37
-34.04
-25.16
-14.38
-4.22
4.09
11.45
20.73
34.87
55.85
83.63
116.53
150.73
181.38
204.05
215.64
214.89
202.86
182.37
153.34
118.91
83.16
49.43
19.35
-5.66
-25.37
-37.63
-39.48
-29.37
-7.43
22.16
52.50
76.61
89.88
91.26
83.24
70.02
55.73
43.82
35.86
31.75
30.34
29.78
27.67
21.65
9.58
-10.16
-37.89
-72.78
-112.51
-153.22
-190.01
-218.26
-234.84
-239.23
-233.47
-220.99
-205.55
-190.21
-176.85
-166.45
-159.38
-155.31
-152.93
-149.74
-142.27
-127.13
-102.29
-67.97
-27.00
15.97
55.61
87.10
107.17
114.59
110.26
96.81
77.93
57.36
38.31
22.99
12.48
6.91
5.50
6.63
8.08
7.52
3.13
-5.68
-18.12
-32.42
-46.54
-59.12
-69.85
-79.16
-87.24
-93.07
-94.03
-86.54
-67.62
-36.49
4.34
49.41
91.88
125.71
147.77
158.88
163.38
167.43
176.67
194.04
218.73
246.53
271.26
286.70
288.26
274.11
245.50
206.45
162.81
120.88
85.75
59.93
42.73
30.91
20.37
8.27
-5.54
-18.45
-26.33
-25.69
-15.24
3.45
26.69
49.98
69.37
82.27
87.55
85.29
76.26
61.59
42.54
20.54
-2.74
-25.43
-45.75
-62.40
-74.92
-83.79
-89.98
-94.39
-97.41
-98.89
-98.66
-97.23
-95.96
-96.55
-100.00
-105.71
-111.34
-113.84
-110.80
-101.71
-88.18
-73.25
-60.14
-51.22
-47.46
-48.56
-53.24
-59.52
-65.23
-68.38
-67.77
-63.62
-57.63
-52.59
-51.45
-56.30
-67.67
-84.49
-104.47
-124.88
-143.25
-157.88
-167.94
-173.42
-174.79
-172.68
-167.70
-160.34
-150.80
-138.92
-124.04
-105.13
-81.46
-53.40
-23.12
5.40
27.34
38.83
38.62
28.76
13.89
-0.63
-10.76
-14.89
-13.84
-10.06
-6.55
-6.07
-10.67
-21.15
-36.47
-53.54
-67.48
-72.91
-65.83
-45.32
-14.16
22.02
56.61
84.08
101.24
107.86
106.30
100.59
95.12
93.58
98.06
108.89
124.87
143.58
162.57
179.78
193.35
201.17
200.94
190.83
170.82
143.48
113.10
85.14
64.51
54.18
54.09
61.23
70.53
76.05
72.25
54.40
20.81
-26.05
-79.78
-132.00
-175.28
-205.46
-222.51
-223.99
-210.23
-183.76
-148.68
-109.28
-69.35
-32.28
-1.06
22.44
38.18
47.24
51.90
54.54
56.72
58.72
59.90
59.51
57.32
54.14
50.68
47.72
45.82
45.13
45.30
45.59
45.33
44.28
42.75
41.10
39.74
39.03
39.09
39.78
40.66
41.27
41.32
40.85
39.96
38.84
37.66
36.45
34.97
32.79
29.43
24.59
18.21
10.62
2.43
-5.61
-12.94
-19.23
-24.57
-29.23
-33.55
-37.64
-41.23
-43.83
-45.02
-44.59
-42.74
-40.04
-37.18
-34.89
-33.66
-33.80
-35.34
-37.85
-40.15
-40.31
-36.19
-26.32
-10.98
7.73
26.52
42.22
52.97
58.82
61.23
62.02
62.33
62.05
60.52
57.31
52.75
47.80
43.45
40.02
36.81
34.08
31.36
28.41
25.36
22.51
19.96
17.49
14.66
11.14
6.97
2.29
-2.61
-7.46
-12.07
-16.32
-20.08
-23.17
-25.45
-26.82
-27.46
-27.53
-26.89
-25.04
-21.38
-15.64
-8.22
-0.16
7.26
12.89
16.04
16.83
16.07
14.76
13.60
12.84
12.37
11.93
11.21
9.29
5.68
0.66
-4.85
-9.88
-13.83
-16.58
-18.40
-19.73
-22.31
-26.97
-33.08
-39.06
-43.63
-46.59
-48.51
-50.16
-52.07
-56.52
-64.47
-74.81
-85.15
-93.65
-99.96
-104.88
-109.63
-115.41
-126.11
-143.96
-167.96
-194.35
-218.61
-237.04
-247.23
-248.33
-223.30
-167.96
-93.68
-20.41
37.35
75.87
98.42
110.00
114.61
114.89
109.87
99.76
87.30
76.41
69.39
65.95
63.96
61.27
56.89
49.20
38.64
27.82
19.69
15.30
13.47
12.05
9.48
5.96
1.90
-0.93
-0.02
7.40
22.46
44.48
71.00
98.22
121.42
135.04
133.62
117.56
91.89
64.01
40.90
25.75
17.46
11.98
5.35
-2.95
-8.81
-6.14
9.04
36.10
68.42
96.83
113.40
114.61
102.24
82.10
60.39
39.73
21.76
4.90
-12.94
-32.23
-51.22
-66.85
-76.30
-78.61
-75.20
-69.12
-64.03
-62.27
-64.06
-67.55
-69.67
-67.34
-58.85
-44.07
-24.07
-0.61
24.75
50.19
73.08
89.73
95.24
87.86
69.28
44.76
21.04
3.38
-7.13
-13.43
-20.02
-29.18
-38.54
-42.29
-34.77
-14.29
15.14
44.79
65.74
72.63
65.87
50.89
34.79
22.88
16.79
16.80
20.71
26.45
31.88
34.20
29.83
15.69
-8.49
-38.54
-66.56
-84.23
-86.32
-73.30
-50.92
-27.15
-8.41
2.82
7.88
10.25
12.64
15.40
16.86
15.27
10.61
4.75
0.44
-0.37
2.19
6.03
8.62
8.32
4.95
-0.60
-7.55
-16.04
-26.34
-37.88
-48.52
-54.64
-52.78
-41.64
-23.16
-1.58
16.56
27.07
29.42
25.86
19.36
11.79
3.45
-5.89
-15.85
-24.85
-30.48
-31.15
-27.23
-21.08
-15.89
-14.28
-16.93
-22.40
-28.01
-30.64
-27.86
-18.41
-2.71
17.30
37.83
53.94
60.85
55.85
40.02
18.12
-3.24
-17.41
-21.40
-16.50
-6.66
3.83
12.40
18.69
23.50
27.41
30.17
30.86
28.82
24.79
20.37
17.32
16.70
17.85
18.25
14.44
3.62
-14.63
-36.83
-56.48
-66.54
-62.46
-44.28
-16.49
13.84
39.47
55.21
58.71
50.12
31.57
6.86
-19.04
-40.58
-52.62
-52.79
-42.16
-24.54
-4.90
12.56
25.49
33.15
36.08
35.42
32.50
28.92
26.22
25.28
25.88
27.01
27.31
25.86
22.67
18.52
14.49
11.48
9.53
7.82
4.92
-0.52
-9.65
-23.14
-40.75
-60.76
-79.57
-92.50
-94.58
-84.39
-64.07
-39.10
-16.10
-0.12
7.25
7.92
5.31
2.25
-0.51
-3.70
-8.13
-13.55
-18.19
-20.00
-18.00
-13.23
-8.24
-5.67
-7.13
-12.03
-18.05
-22.14
-21.66
-14.95
-1.80
16.74
38.08
58.29
72.74
77.51
71.14
55.44
36.10
19.68
10.85
10.44
15.74
22.53
27.56
30.00
31.07
32.42
34.43
35.82
34.43
28.92
19.79
9.15
-0.13
-5.58
-6.47
-3.92
-0.28
1.93
1.33
-1.80
-5.78
-8.39
-8.13
-4.72
0.47
5.15
6.90
4.08
-4.04
-17.43
-35.12
-54.80
-72.67
-84.05
-83.98
-71.45
-49.09
-22.84
0.31
15.18
20.46
18.65
14.12
10.60
9.41
9.74
9.75
8.21
5.20
2.03
0.17
0.43
2.62
5.65
8.09
8.80
7.42
4.18
-0.18
-4.63
-8.38
-10.85
-11.61
-9.97
-5.60
0.70
6.11
6.10
-3.95
-26.20
-58.56
-95.06
-127.75
-150.06
-159.12
-156.64
-147.00
-134.91
-123.49
-113.93
-106.12
-98.89
-90.23
-76.62
-54.43
-20.99
22.06
69.22
112.71
145.18
163.73
168.36
163.08
152.71
141.39
131.65
124.94
122.22
123.68
128.46
132.71
133.47
127.17
112.00
88.72
60.60
32.47
8.39
-9.61
-21.78
-29.34
-33.70
-35.27
-33.58
-28.14
-19.07
-7.71
3.90
13.90
21.44
26.12
28.00
26.93
21.80
12.58
-0.35
-15.71
-31.19
-44.15
-52.60
-55.39
-52.08
-42.55
-27.31
-8.23
11.08
26.04
32.21
27.59
14.05
-3.12
-17.37
-23.45
-20.36
-11.13
-0.82
6.29
8.39
6.36
2.01
-3.38
-9.87
-18.36
-29.40
-42.30
-55.05
-65.17
-70.34
-69.60
-63.56
-53.96
-43.05
-32.60
-23.46
-14.90
-6.18
3.76
15.38
28.14
40.57
50.76
57.10
58.85
56.59
51.85
46.53
41.88
38.40
35.21
31.02
24.60
15.06
2.16
-14.12
-33.25
-53.78
-72.69
-85.75
-88.76
-78.89
-58.39
-32.76
-9.05
7.04
13.36
11.57
5.66
-0.49
-4.90
-7.84
-10.40
-13.39
-16.64
-19.32
-20.68
-20.79
-20.26
-20.02
-20.99
-23.26
-26.44
-29.92
-33.19
-35.97
-38.21
-39.98
-41.44
-42.67
-43.50
-43.71
-43.07
-41.08
-37.26
-31.04
-21.87
-9.64
5.49
23.56
44.89
69.65
96.79
122.49
141.46
147.92
138.33
113.67
79.81
45.42
18.41
2.95
-1.70
0.61
5.23
8.96
10.65
10.12
6.88
-0.25
-12.01
-27.00
-41.18
-49.14
-46.77
-33.54
-13.70
5.51
17.03
16.87
6.22
-9.85
-25.25
-35.54
-39.22
-37.59
-32.92
-27.03
-20.56
-13.32
-5.05
4.12
13.54
22.27
29.15
33.65
35.81
36.28
35.97
35.73
36.35
38.78
44.43
54.28
68.30
84.12
97.13
101.87
94.27
74.13
44.74
13.69
-12.67
-31.02
-41.53
-45.32
-43.18
-35.61
-23.92
-11.24
-1.84
0.21
-6.25
-18.90
-33.23
-44.79
-51.12
-52.00
-48.58
-41.08
-30.45
-17.53
-4.19
6.14
9.55
3.69
-11.60
-33.88
-58.19
-78.39
-88.71
-84.62
-67.68
-43.71
-20.46
-4.41
1.71
-0.49
-6.90
-13.42
-17.98
-21.26
-24.81
-29.52
-34.93
-39.52
-41.88
-41.65
-39.47
-36.48
-34.04
-32.28
-30.28
-26.82
-20.52
-10.76
1.97
16.57
31.49
44.90
55.44
62.21
64.68
62.56
55.92
45.29
31.35
16.33
2.26
-9.18
-17.02
-20.99
-21.57
-19.27
-14.32
-6.27
5.24
20.21
38.55
60.10
84.47
110.38
134.99
151.89
156.10
144.38
117.11
79.20
38.70
3.84
-20.01
-31.89
-34.49
-31.81
-27.32
-22.84
-18.66
-14.53
-10.54
-7.24
-5.04
-3.88
-2.96
-1.60
0.51
3.14
5.70
7.63
8.59
8.57
7.86
6.77
5.28
2.88
-1.36
-8.68
-20.46
-37.41
-58.49
-80.17
-96.84
-102.07
-92.86
-70.64
-41.20
-12.64
8.06
17.80
17.99
13.01
7.48
3.98
2.68
2.42
1.94
0.77
-0.64
-1.65
-2.08
-1.99
-1.34
-0.07
2.04
4.40
5.40
2.93
-4.84
-18.66
-37.86
-60.49
-83.65
-103.31
-115.24
-115.82
-103.29
-78.99
-47.46
-15.35
10.93
26.85
31.97
29.03
22.11
14.75
9.04
5.74
5.33
8.21
14.50
23.64
33.78
42.53
47.79
48.73
46.72
45.08
47.74
57.05
71.70
86.13
92.44
83.59
56.81
15.31
-32.50
-75.71
-104.49
-112.71
-98.73
-64.93
-16.88
37.68
89.79
129.62
150.02
148.61
128.12
95.45
58.77
24.48
-4.21
-27.12
-45.17
-58.12
-64.08
-60.85
-47.38
-25.28
0.85
24.95
41.40
46.25
38.92
22.26
-0.39
-25.12
-48.14
-66.20
-76.71
-78.12
-69.83
-51.81
-24.90
8.78
45.48
79.30
103.15
111.09
101.02
76.30
45.16
17.20
-0.60
-6.79
-5.77
-5.02
-10.88
-25.19
-44.58
-62.58
-73.27
-74.15
-67.05
-56.98
-49.53
-48.39
-54.05
-63.96
-72.81
-75.62
-68.68
-51.02
-25.24
2.84
25.95
37.70
34.65
17.22
-10.65
-42.80
-73.33
-98.54
-117.58
-131.65
-142.54
-151.39
-157.82
-159.27
-151.34
-129.36
-90.40
-34.54
34.87
111.77
188.18
251.99
289.91
293.61
264.55
213.28
153.89
98.12
52.89
20.05
-1.40
-13.18
-16.70
-13.69
-7.11
-1.40
-1.21
-8.99
-23.83
-40.85
-52.13
-49.63
-29.34
6.69
50.59
91.76
121.51
135.71
135.73
126.91
115.44
105.53
98.11
91.89
83.29
72.89
62.89
55.59
52.22
52.49
54.71
56.01
53.39
44.22
27.17
2.35
-27.83
-59.53
-88.42
-111.01
-125.98
-133.80
-135.44
-130.81
-118.95
-99.09
-72.24
-42.04
-14.06
6.05
15.25
14.24
6.86
-2.42
-10.73
-17.78
-25.22
-33.40
-42.24
-50.49
-56.64
-59.84
-60.79
-61.52
-64.25
-70.29
-79.40
-90.36
-101.52
-111.54
-119.71
-125.87
-130.31
-133.67
-136.76
-140.14
-143.89
-147.31
-149.13
-148.23
-143.93
-136.24
-125.31
-111.03
-93.02
-71.50
-47.64
-23.15
1.26
27.54
59.93
102.58
155.99
214.64
267.63
302.87
312.67
297.62
266.55
231.62
202.27
181.21
164.65
145.92
120.36
88.16
51.95
18.02
-7.67
-22.64
-28.94
-31.13
-33.07
-35.85
-37.95
-37.14
-31.94
-23.22
-13.85
-7.17
-5.43
-8.82
-15.51
-22.61
-27.42
-28.14
-24.84
-19.21
-13.70
-10.54
-10.76
-13.98
-18.66
-22.81
-24.52
-23.08
-19.01
-13.67
-8.85
-5.80
-4.89
-6.04
-9.24
-14.33
-20.60
-26.07
-27.26
-20.77
-4.88
19.08
46.44
70.69
86.11
89.93
81.95
66.35
47.57
28.75
11.45
-3.60
-15.53
-23.16
-25.63
-23.47
-18.71
-14.56
-13.61
-16.64
-22.04
-26.68
-27.63
-23.61
-15.93
-7.57
-2.37
-2.90
-9.17
-18.52
-26.61
-29.16
-23.32
-9.14
10.15
28.47
38.70
34.97
15.02
-18.28
-56.93
-89.47
-104.66
-95.65
-63.40
-17.19
28.45
59.26
66.91
51.98
23.05
-7.71
-30.18
-39.70
-38.08
-30.96
-23.40
-16.90
-9.85
0.13
13.46
27.69
38.79
43.32
40.50
32.47
22.67
13.94
7.16
1.89
-2.55
-5.56
-5.27
0.37
11.89
27.34
42.69
53.54
57.42
54.38
46.29
35.59
23.97
12.39
1.70
-6.96
-12.12
-12.30
-7.23
1.56
10.91
16.94
16.07
6.56
-10.90
-33.45
-56.77
-76.82
-90.96
-98.36
-99.53
-95.41
-86.51
-72.27
-53.42
-31.08
-7.44
14.48
31.65
41.75
43.54
37.14
24.24
8.22
-6.08
-13.77
-11.55
0.52
18.67
36.79
48.64
50.91
44.22
32.40
19.97
9.90
2.56
-3.44
-9.60
-16.20
-22.06
-25.48
-25.49
-22.56
-18.43
-15.22
-14.39
-15.87
-18.21
-19.33
-17.49
-12.08
-3.74
6.30
17.04
27.92
38.57
48.06
54.40
55.23
49.09
36.54
20.41
4.44
-8.76
-18.99
-28.19
-38.35
-49.29
-57.98
-59.82
-51.24
-32.01
-5.63
22.56
48.00
68.35
82.99
91.15
90.66
78.56
53.23
16.67
-24.90
-62.72
-88.88
-99.34
-94.38
-79.10
-59.83
-41.29
-25.49
-12.34
-1.16
8.21
15.34
19.70
21.21
20.64
19.29
18.40
18.54
19.55
20.71
21.23
20.60
18.81
16.50
14.53
13.58
13.85
15.01
16.36
17.24
17.28
16.51
15.38
14.52
14.33
14.89
15.93
16.96
17.67
17.90
17.81
17.76
18.13
18.96
20.04
20.88
20.96
19.95
17.88
15.04
11.81
8.40
4.63
0.09
-5.73
-13.05
-21.59
-30.43
-38.26
-43.86
-46.59
-46.62
-44.77
-42.21
-39.88
-38.03
-36.01
-32.67
-27.09
-18.72
-8.59
1.72
10.53
16.31
17.67
13.92
4.93
-8.17
-22.40
-33.36
-36.49
-29.30
-12.50
8.66
27.50
38.63
40.26
34.37
25.08
16.30
9.91
5.61
2.03
-1.58
-4.85
-6.68
-6.24
-3.81
-0.62
1.76
2.05
0.01
-3.47
-7.02
-9.29
-9.66
-8.45
-6.64
-5.44
-5.69
-7.58
-10.54
-13.64
-16.01
-17.23
-17.49
-17.35
-17.56
-18.65
-20.78
-23.64
-26.72
-29.45
-31.57
-33.10
-34.39
-35.84
-37.76
-40.17
-42.77
-44.93
-45.98
-45.36
-42.82
-38.47
-32.80
-26.28
-19.35
-12.18
-4.69
3.35
12.04
21.11
29.85
37.26
42.43
44.89
44.90
43.47
41.97
41.57
42.87
45.68
49.28
52.75
55.30
56.61
56.91
56.87
57.37
59.27
63.06
68.77
75.73
82.46
87.09
87.82
83.61
74.46
61.47
46.36
30.83
16.17
2.90
-8.72
-18.32
-25.38
-29.44
-30.27
-28.25
-24.53
-21.02
-20.31
-24.18
-32.60
-43.25
-52.35
-56.64
-55.64
-52.73
-54.39
-67.98
-97.71
-142.14
-193.92
-241.97
-275.24
-286.26
-273.23
-237.23
-184.85
-124.87
-65.30
-11.02
37.03
80.83
123.00
164.82
205.48
242.33
272.99
296.40
312.69
322.31
325.26
321.20
310.21
293.58
273.47
252.49
232.22
212.22
190.09
162.29
125.42
77.38
18.50
-48.05
-115.71
-175.34
-217.56
-235.37
-226.76
-195.62
-150.84
-103.87
-65.89
-45.31
-46.09
-67.10
-101.55
-138.25
-164.90
-172.49
-158.98
-130.11
-96.55
-68.94
-54.27
-54.16
-66.34
-87.42
-115.20
-148.84
-187.41
-228.11
-261.03
-275.42
-263.52
-224.68
-166.05
-99.53
-36.93
13.57
48.86
70.61
82.41
87.62
88.13
85.05
80.34
78.10
83.56
100.23
126.84
155.86
176.58
180.15
164.17
133.74
98.66
68.28
47.45
35.73
29.30
24.58
20.45
17.96
18.46
21.69
25.41
26.69
23.77
16.97
8.78
2.45
0.45
3.20
9.08
15.09
18.21
16.22
8.19
-5.16
-21.25
-36.11
-45.06
-44.24
-32.43
-12.12
11.06
30.35
40.48
40.17
32.00
20.54
9.83
1.79
-3.84
-8.25
-12.07
-14.91
-15.80
-14.30
-11.07
-7.56
-5.16
-4.59
-5.43
-6.49
-6.59
-5.25
-2.95
-0.80
0.11
-0.52
-2.08
-3.28
-2.92
-0.51
3.41
7.57
10.63
11.94
11.91
11.72
12.87
16.66
23.81
34.02
45.77
55.88
60.04
53.88
34.56
2.56
-37.68
-78.74
-112.70
-134.32
-143.01
-142.87
-140.07
-139.20
-140.75
-141.38
-136.41
-123.60
-104.46
-82.83
-62.03
-42.24
-20.28
7.89
43.94
85.60
127.07
162.05
186.47
198.97
199.73
188.90
166.33
131.39
88.74
45.61
9.49
-14.49
-25.24
-25.65
-20.24
-13.28
-7.21
-2.57
0.54
2.05
1.96
0.58
-1.45
-3.21
-4.13
-3.86
-2.36
-0.37
0.88
-0.29
-5.41
-14.76
-26.34
-36.15
-39.01
-31.17
-12.71
12.06
36.00
51.89
55.99
49.29
35.82
20.24
5.14
-9.43
-24.16
-38.22
-48.12
-49.22
-39.06
-20.33
-0.13
12.43
10.63
-5.85
-30.65
-53.76
-66.16
-64.40
-51.43
-33.81
-17.85
-6.59
0.54
5.95
11.57
17.54
22.37
24.34
22.95
19.18
15.01
12.56
12.91
15.79
19.81
23.15
24.48
23.57
21.26
18.93
17.91
18.83
21.42
24.81
27.89
29.83
30.46
30.13
29.54
29.43
30.21
31.86
34.04
36.16
37.53
37.53
35.83
32.42
27.66
22.11
16.36
10.95
6.04
1.38
-3.64
-9.58
-16.71
-24.75
-32.96
-40.56
-47.00
-52.13
-56.43
-60.59
-65.18
-70.57
-77.17
-84.80
-94.65
-106.33
-117.43
-123.53
-119.78
-103.28
-75.11
-40.46
-6.84
18.82
33.22
36.95
33.55
27.20
20.88
16.14
13.88
15.45
22.10
33.98
48.30
59.66
62.04
51.97
30.80
4.98
-16.77
-27.27
-23.71
-9.34
9.22
25.18
34.13
34.62
27.77
16.14
3.13
-7.25
-11.26
-6.66
5.82
22.26
37.13
45.25
44.49
36.22
23.94
11.26
0.35
-8.43
-15.57
-21.40
-25.56
-27.34
-26.49
-23.82
-20.91
-19.37
-20.36
-23.81
-28.68
-33.35
-36.33
-36.72
-34.48
-30.28
-25.19
-20.16
-15.51
-10.98
-5.51
2.11
12.77
26.53
42.43
58.45
72.01
80.79
83.15
78.82
68.90
55.53
41.10
28.65
20.19
15.91
13.72
9.86
0.32
-17.05
-40.70
-65.31
-83.70
-89.34
-79.20
-55.15
-23.23
8.58
32.77
44.49
42.47
28.87
8.70
-11.35
-24.52
-26.09
-15.38
3.40
22.37
33.37
31.28
16.29
-6.38
-29.17
-45.58
-52.53
-50.71
-43.06
-32.57
-20.89
-8.32
5.13
18.76
30.73
38.59
40.40
35.72
25.90
13.39
0.54
-11.81
-24.70
-40.42
-60.95
-86.21
-113.44
-137.90
-155.11
-162.74
-161.31
-153.32
-141.53
-127.55
-111.58
-93.22
-72.51
-50.77
-30.24
-13.21
-1.12
5.94
9.08
10.19
10.30
11.23
14.96
23.26
37.07
55.94
78.00
100.20
119.57
134.58
146.35
158.00
172.79
191.41
210.21
221.95
218.22
193.02
145.92
83.04
15.61
-43.22
-81.74
-92.03
-70.27
-17.59
58.13
142.38
215.43
258.41
261.03
225.51
164.38
94.81
31.12
-18.85
-54.03
-77.51
-92.86
-101.10
-100.18
-87.02
-58.93
-18.35
28.43
73.37
109.71
134.58
149.48
157.55
155.25
139.80
106.04
50.33
-24.33
-105.91
-176.11
-217.81
-222.81
-195.37
-148.56
-99.04
-59.67
-36.24
-28.63
-34.20
-50.60
-76.10
-108.77
-143.44
-173.12
-190.89
-192.90
-180.58
-160.17
-139.85
-125.76
-119.44
-117.03
-111.98
-98.38
-74.07
-41.76
-7.86
20.35
37.82
42.26
34.70
18.40
-1.78
-19.85
-29.32
-24.17
-0.27
43.25
101.17
162.77
214.50
244.42
246.32
221.72
178.91
127.53
79.20
42.71
21.46
13.53
14.12
18.73
24.87
31.61
38.89
46.78
54.72
61.94
67.90
71.78
72.32
68.41
58.03
41.05
20.54
2.44
-6.59
-2.06
16.05
42.86
70.41
90.21
96.14
85.26
58.06
17.29
-33.39
-88.89
-142.74
-188.52
-221.98
-242.21
-252.01
-254.99
-253.08
-245.28
-228.41
-199.53
-158.56
-109.57
-56.25
-6.76
31.22
54.14
63.39
63.07
57.01
47.37
35.15
21.55
8.23
-2.11
-6.90
-5.43
0.28
5.65
5.35
-4.39
-23.77
-49.98
-76.24
-94.84
-100.25
-91.29
-71.20
-46.12
-22.35
-4.37
5.79
8.99
7.73
4.70
1.64
-0.88
-3.23
-5.95
-10.18
-18.07
-32.47
-55.72
-88.35
-127.73
-167.69
-199.82
-215.27
-208.57
-179.83
-134.08
-78.85
-21.23
34.44
87.27
139.00
193.13
251.47
312.20
369.57
415.42
441.80
444.11
423.26
379.13
318.17
250.11
184.26
126.48
78.53
39.22
6.83
-19.44
-39.78
-53.73
-62.01
-66.34
-68.72
-70.23
-71.47
-72.45
-73.39
-75.01
-77.63
-80.78
-82.36
-78.46
-64.40
-37.61
0.10
42.85
82.56
112.05
127.37
128.49
115.87
94.94
70.77
46.44
23.31
1.85
-18.13
-37.45
-57.44
-79.04
-101.41
-122.37
-139.09
-150.47
-156.26
-157.75
-156.55
-153.10
-145.83
-131.71
-109.06
-79.16
-46.32
-16.30
5.83
17.83
20.72
17.88
13.22
8.99
5.40
1.22
-5.01
-14.15
-25.78
-38.40
-49.89
-58.17
-62.02
-61.09
-55.65
-46.11
-32.91
-15.99
3.96
25.70
46.79
64.21
75.46
79.37
76.75
69.97
61.84
54.41
48.51
43.80
39.62
35.90
33.21
32.60
34.62
38.68
43.16
45.80
44.31
37.10
24.66
8.73
-6.96
-17.58
-18.94
-9.35
9.25
31.56
50.45
60.35
59.37
49.68
35.49
20.53
6.95
-4.45
-13.62
-20.63
-25.81
-30.21
-35.52
-43.55
-55.34
-70.63
-88.08
-105.66
-120.75
-130.28
-131.07
-120.55
-98.07
-66.10
-31.13
-0.79
17.35
18.84
4.59
-18.95
-42.04
-55.33
-53.28
-35.83
-7.92
23.26
51.76
74.64
91.98
105.29
115.66
122.99
126.43
125.50
120.66
113.35
105.40
98.81
95.44
96.92
104.25
117.32
134.72
153.75
171.11
183.10
186.12
176.99
153.38
114.49
61.63
-1.33
-68.39
-131.28
-181.72
-214.19
-228.07
-228.16
-222.90
-220.94
-227.38
-241.21
-255.50
-260.50
-247.66
-212.86
-157.67
-88.03
-12.01
62.29
127.97
179.62
213.23
226.44
219.12
193.78
155.87
113.23
75.06
50.17
44.82
60.88
94.98
139.43
184.67
222.22
246.76
256.61
252.53
235.96
208.22
170.64
125.15
74.46
21.35
-32.64
-87.81
-145.13
-204.48
-261.85
-308.98
-335.93
-335.66
-308.08
-261.59
-210.66
-170.75
-153.94
-164.88
-200.65
-252.97
-311.72
-367.40
-412.92
-444.10
-459.24
-460.00
-449.48
-430.92
-406.37
-375.91
-337.70
-289.46
-230.23
-155.91
-70.73
13.52
81.52
121.98
134.24
128.98
122.73
129.09
154.85
198.05
251.40
306.43
356.42
393.81
413.70
413.16
391.78
354.29
309.88
271.42
251.51
256.87
284.47
322.59
355.18
363.24
337.59
281.73
210.23
140.80
85.38
46.07
18.71
-2.27
-19.83
-33.01
-40.22
-42.04
-41.01
-39.15
-37.43
-33.92
-26.42
-15.26
-3.93
1.66
-4.52
-22.11
-44.17
-61.41
-67.70
-63.77
-56.11
-51.58
-53.05
-58.01
-61.28
-60.12
-57.18
-58.79
-70.55
-92.92
-119.41
-139.46
-143.32
-126.91
-94.34
-56.36
-25.50
-11.14
-16.23
-37.08
-66.20
-94.97
-116.62
-127.58
-127.10
-116.01
-95.89
-68.44
-36.05
-2.52
27.34
48.62
57.80
53.80
39.09
18.86
0.24
-9.80
-6.74
10.11
37.15
67.49
93.21
108.44
110.28
101.12
88.40
78.89
76.20
79.64
84.81
85.86
78.41
61.57
39.25
18.43
5.61
3.20
7.76
11.09
3.81
-20.43
-62.80
-117.63
-174.59
-222.33
-252.49
-261.59
-251.03
-225.91
-190.77
-152.30
-116.47
-87.74
-63.95
-40.66
-14.11
16.68
50.01
82.55
110.78
133.27
150.90
165.97
180.00
193.08
203.89
210.80
213.09
211.68
209.61
210.65
217.44
229.09
240.72
244.34
231.11
194.58
133.46
53.48
-33.58
-113.27
-173.39
-207.57
-216.21
-204.74
-180.20
-148.49
-113.23
-76.82
-42.11
-13.33
4.98
10.20
3.22
-11.53
-27.95
-40.43
-45.41
-41.26
-27.48
-3.81
29.57
71.13
117.00
161.03
196.01
215.46
215.09
193.43
151.64
93.09
23.11
-51.01
-120.14
-174.39
-204.96
-206.51
-178.96
-128.16
-64.85
-2.27
46.96
73.90
75.54
55.44
22.34
-13.09
-41.95
-59.83
-67.40
-68.61
-67.68
-66.53
-64.10
-57.74
-45.69
-29.10
-12.15
-0.42
1.87
-6.16
-21.39
-38.07
-50.29
-54.20
-49.33
-38.25
-25.12
-13.89
-7.16
-6.15
-11.40
-23.33
-42.03
-66.42
-93.37
-117.70
-133.64
-136.99
-127.07
-107.22
-83.36
-61.54
-45.61
-36.20
-31.42
-28.71
-26.68
-25.95
-28.49
-36.04
-48.41
-62.73
-74.06
-77.11
-68.31
-47.11
-16.21
19.37
53.84
82.00
100.09
105.86
98.48
78.50
47.96
10.58
-28.36
-62.61
-86.16
-94.55
-86.00
-61.92
-26.52
14.27
54.06
87.32
110.38
121.96
123.35
117.95
110.23
104.40
103.20
107.13
114.72
123.26
129.71
131.44
126.58
114.00
93.35
65.41
32.11
-3.67
-38.75
-70.22
-95.80
-113.86
-123.48
-124.87
-119.93
-112.47
-107.38
-109.04
-119.15
-135.55
-152.64
-163.58
-163.05
-149.41
-124.96
-94.38
-62.40
-32.06
-4.24
21.54
45.62
67.21
84.45
95.27
98.85
96.27
90.21
83.96
80.45
81.30
86.56
94.97
104.78
114.49
123.30
131.03
136.96
140.32
140.49
137.22
130.83
122.26
112.85
104.27
98.32
95.00
92.48
87.25
75.15
52.98
20.03
-21.31
-65.01
-103.75
-131.37
-144.64
-144.08
-133.79
-120.34
-111.17
-112.84
-128.78
-158.48
-197.21
-236.94
-268.47
-284.29
-281.05
-260.73
-229.86
-196.35
-167.20
-146.25
-133.60
-126.18
-119.44
-109.02
-91.91
-66.40
-30.67
16.91
76.77
146.42
219.63
286.93
338.41
367.04
366.98
339.81
294.10
242.35
195.40
158.35
129.94
106.06
83.76
63.36
48.80
44.36
52.35
69.87
91.15
109.80
121.50
124.92
120.98
112.57
102.37
91.90
81.29
70.53
59.38
49.29
41.81
36.84
32.98
27.27
15.96
-4.52
-35.70
-76.14
-120.89
-163.39
-198.22
-222.20
-235.86
-242.66
-247.13
-252.17
-257.79
-260.99
-253.00
-228.42
-187.19
-135.47
-82.63
-36.33
1.07
30.27
57.60
87.66
120.93
154.64
184.20
205.40
214.92
212.05
198.42
176.86
148.58
113.45
72.28
28.62
-11.04
-39.57
-53.00
-53.76
-50.50
-55.61
-78.44
-119.71
-170.80
-217.82
-248.10
-255.52
-242.19
-210.52
-168.59
-125.83
-89.26
-61.40
-41.10
-26.08
-14.46
-4.61
4.29
14.76
29.90
51.69
79.24
108.22
132.17
144.12
140.87
125.20
103.70
83.13
67.41
56.35
48.55
43.48
42.47
47.75
60.44
78.76
97.60
110.09
109.53
92.71
62.26
26.49
-4.53
-24.11
-31.65
-31.63
-29.51
-27.76
-24.58
-16.83
-2.17
16.97
32.99
36.37
20.15
-16.32
-66.55
-119.21
-162.36
-187.72
-190.91
-173.80
-142.26
-103.73
-64.64
-29.38
-0.25
22.03
38.11
49.75
59.35
69.48
81.72
95.53
107.83
113.73
108.25
87.86
51.57
1.13
-58.86
-121.79
-179.95
-226.48
-257.13
-271.47
-272.90
-267.30
-261.14
-259.32
-264.25
-275.35
-290.40
-306.09
-318.20
-322.45
-315.82
-298.04
-272.21
-243.76
-216.61
-191.91
-167.26
-137.69
-98.41
-47.29
13.83
79.71
143.48
201.03
250.25
291.21
326.00
357.42
388.05
419.47
451.86
484.07
517.23
552.51
590.50
630.97
671.76
708.72
737.02
753.00
739.48
687.46
595.62
471.54
330.45
189.81
64.57
-35.07
-104.28
-144.20
-158.89
-154.19
-141.21
-128.78
-121.10
-117.55
-114.64
-109.35
-105.23
-103.49
-105.97
-113.42
-123.57
-133.31
-141.48
-150.40
-164.83
-189.17
-222.39
-259.04
-292.45
-315.78
-324.84
-319.25
-301.60
-275.64
-244.67
-209.82
-171.58
-130.76
-88.43
-46.40
-6.95
27.76
56.03
76.82
89.55
94.06
90.81
81.27
67.65
52.58
38.60
27.61
20.42
16.65
14.79
12.77
8.73
1.42
-9.60
-23.84
-40.10
-56.87
-72.60
-86.11
-96.63
-103.94
-108.24
-110.08
-110.17
-109.18
-107.54
-105.46
-102.90
-99.79
-96.10
-91.90
-87.23
-82.01
-75.96
-68.72
-59.99
-49.80
-38.57
-27.08
-16.17
-6.25
2.91
12.23
22.89
35.75
50.86
67.42
84.11
99.71
113.67
126.27
138.25
150.30
162.68
175.33
188.21
201.42
214.88
227.57
237.14
240.37
234.55
219.36
197.98
176.55
161.79
158.01
165.27
179.64
195.47
208.13
215.37
216.90
212.80
202.10
182.79
153.13
113.35
66.66
18.50
-25.23
-60.29
-85.42
-102.35
-114.79
-126.94
-142.12
-161.80
-185.37
-210.76
-235.96
-260.40
-285.58
-314.32
-348.85
-388.75
-430.08
-466.12
-489.55
-494.86
-480.01
-446.57
-398.57
-341.28
-280.29
-221.16
-169.19
-128.56
-101.15
-85.52
-77.10
-69.66
-57.71
-38.52
-12.82
16.04
43.85
67.22
84.28
94.52
98.23
96.26
90.09
82.04
75.11
72.11
74.64
82.33
92.75
102.27
107.23
105.11
95.10
78.27
56.98
34.24
12.89
-4.96
-18.29
-27.09
-32.20
-34.89
-36.48
-38.07
-40.41
-43.89
-48.66
-54.56
-61.14
-67.57
-72.70
-75.18
-73.71
-67.17
-54.97
-37.21
-14.88
10.23
35.88
59.95
80.98
98.40
112.36
123.29
131.36
136.30
137.62
135.02
128.76
119.77
109.29
98.46
87.92
77.77
67.83
57.90
48.04
38.62
30.07
22.73
16.65
11.66
7.51
4.08
1.49
0.11
0.42
2.72
7.02
12.86
19.49
25.97
31.49
35.56
38.07
39.28
39.61
39.41
38.86
37.94
36.55
34.59
32.13
29.33
26.42
23.62
21.07
18.82
16.87
15.14
13.54
11.99
10.41
8.78
7.11
5.48
3.96
2.62
1.41
0.24
-1.01
-2.46
-4.08
-5.67
-6.90
-7.35
-6.70
-4.76
-1.61
2.46
6.97
11.43
15.36
18.41
20.41
21.41
21.63
21.37
20.94
20.51
20.13
19.73
19.29
18.88
18.65
18.82
19.57
20.97
22.92
25.16
27.32
29.07
30.21
30.82
31.25
32.08
33.79
36.55
39.99
43.30
45.52
46.03
44.94
43.28
42.80
45.39
52.38
63.84
78.32
93.11
104.94
110.78
108.51
97.29
77.75
51.95
23.36
-3.72
-24.96
-37.19
-39.34
-32.76
-20.48
-5.83
8.99
23.50
38.53
55.24
73.86
93.21
111.02
124.85
133.10
135.59
133.28
127.44
118.81
107.25
92.40
74.65
55.90
39.25
27.75
22.65
22.47
23.44
21.21
13.17
-0.33
-16.33
-31.19
-42.79
-51.53
-59.90
-70.58
-84.58
-100.20
-113.45
-119.67
-115.10
-98.25
-70.19
-34.15
5.23
42.63
72.79
91.28
95.26
84.23
60.18
27.26
-9.32
-44.59
-74.87
-98.28
-114.84
-126.06
-134.24
-141.59
-149.49
-158.03
-166.11
-171.90
-173.67
-170.67
-163.59
-154.49
-146.06
-140.77
-139.91
-143.24
-149.02
-154.74
-157.83
-156.44
-149.95
-139.09
-125.61
-111.86
-100.48
-94.35
-96.44
-109.30
-133.86
-168.21
-207.22
-243.42
-269.24
-279.61
-273.67
-254.45
-227.14
-196.48
-165.16
-133.53
-100.60
-65.31
-27.15
13.91
57.92
105.15
155.79
209.37
264.17
316.78
362.45
395.81
412.10
408.52
385.30
345.91
296.27
243.23
192.66
148.34
111.64
82.04
58.14
38.51
22.19
8.77
-1.70
-9.23
-14.48
-19.28
-26.58
-39.48
-59.72
-86.31
-115.17
-140.38
-156.61
-161.53
-156.74
-146.74
-136.36
-128.38
-122.44
-115.94
-106.10
-91.75
-73.98
-55.33
-38.26
-24.03
-12.59
-3.30
4.20
9.52
11.91
10.95
7.24
2.42
-1.39
-2.35
0.47
6.72
15.01
23.44
30.39
35.11
37.90
39.83
42.07
45.24
49.08
52.63
54.74
54.69
52.54
48.96
44.98
41.46
38.93
37.46
36.79
36.46
36.08
35.40
34.31
32.72
30.53
27.66
23.91
18.89
11.97
2.49
-9.81
-24.35
-39.32
-51.69
-57.97
-55.50
-43.54
-23.81
0.21
24.70
46.95
66.37
83.19
98.29
112.15
124.28
133.05
136.21
131.83
119.27
100.02
77.62
56.53
40.52
31.19
27.69
27.40
27.11
24.42
17.34
4.92
-12.45
-32.78
-52.47
-66.91
-71.86
-64.20
-45.39
-21.09
1.46
16.61
22.25
19.68
11.99
2.08
-8.21
-18.11
-26.97
-33.68
-36.77
-35.16
-28.99
-19.99
-11.36
-7.15
-11.20
-25.35
-48.80
-78.02
-107.65
-132.07
-147.17
-151.71
-147.23
-136.83
-123.14
-107.05
-87.80
-64.38
-37.63
-11.13
9.44
19.14
16.79
6.57
-3.23
-3.79
10.41
38.92
75.92
111.25
134.74
140.28
127.83
102.23
70.57
40.96
18.25
5.49
4.36
15.16
35.94
61.92
85.59
97.40
89.39
58.25
8.14
-49.74
-100.01
-128.37
-126.01
-93.84
-43.09
9.22
47.89
66.37
67.60
59.83
50.37
42.17
34.66
27.96
26.08
36.34
65.98
116.34
181.23
248.75
305.86
342.86
355.88
346.54
319.98
282.26
238.53
192.70
147.56
105.24
67.11
34.79
9.08
-10.21
-24.14
-34.57
-43.64
-53.55
-66.17
-82.69
-103.45
-128.03
-155.21
-183.16
-210.11
-234.54
-255.55
-272.78
-286.08
-295.15
-299.52
-298.59
-292.04
-280.31
-264.45
-245.90
-225.85
-204.90
-183.12
-160.48
-137.26
-114.27
-92.61
-73.26
-56.66
-42.59
-30.22
-18.55
-6.81
5.26
17.37
28.87
39.06
47.43
53.73
57.90
59.88
59.62
57.21
52.98
47.54
41.64
35.82
30.33
25.10
19.97
14.99
10.40
6.46
3.22
0.38
-2.51
-5.68
-8.88
-11.47
-12.65
-11.93
-9.36
-5.49
-1.04
3.51
8.25
13.74
20.64
29.41
39.93
51.33
62.09
70.49
75.15
75.81
73.47
70.07
67.91
68.85
73.44
80.70
88.41
93.92
95.39
92.46
86.46
80.45
78.45
84.05
98.93
121.87
148.65
173.77
192.22
200.24
197.23
186.13
172.26
160.74
154.75
152.34
149.38
141.76
126.73
103.41
72.93
38.23
3.51
-26.80
-49.91
-65.93
-78.47
-93.16
-114.65
-144.09
-178.44
-212.24
-240.42
-260.47
-272.15
-276.06
-271.84
-257.67
-231.79
-194.96
-152.10
-111.56
-82.46
-70.96
-77.68
-97.52
-121.59
-140.27
-146.12
-135.68
-109.67
-72.54
-31.38
5.14
28.35
31.84
13.66
-22.73
-69.32
-116.41
-156.11
-184.56
-202.05
-210.93
-213.03
-208.27
-195.25
-173.10
-143.10
-108.74
-74.19
-42.29
-13.51
13.60
40.84
68.72
95.85
119.50
136.86
146.39
148.49
145.16
139.18
132.98
127.95
124.26
121.15
117.56
112.72
106.42
99.03
91.35
84.21
78.19
73.43
69.63
66.16
62.35
57.70
52.04
45.53
38.58
31.73
25.56
20.59
17.17
15.44
15.16
15.82
16.69
17.10
16.57
14.98
12.55
9.68
6.81
4.28
2.27
0.76
-0.41
-1.43
-2.51
-3.75
-5.11
-6.50
-7.79
-8.94
-9.99
-11.01
-12.11
-13.32
-14.61
-15.89
-17.05
-17.96
-18.47
-18.44
-17.72
-16.17
-13.75
-10.59
-7.04
-3.63
-0.86
0.96
1.86
2.17
2.42
3.13
4.63
6.96
9.94
13.25
16.60
19.81
22.82
25.69
28.56
31.56
34.77
38.17
41.67
45.04
47.99
50.18
51.32
51.47
50.94
50.35
50.33
51.27
53.06
55.11
56.67
57.14
56.70
56.07
56.23
57.89
61.12
65.18
68.91
71.12
71.14
69.38
66.92
65.06
64.77
66.27
68.69
70.50
70.11
66.46
60.18
53.12
47.92
47.31
53.63
67.71
88.89
114.97
138.71
152.91
151.59
132.35
97.96
56.20
15.95
-16.04
-37.30
-49.75
-56.58
-60.22
-60.64
-55.35
-39.64
-11.46
28.12
75.02
123.22
167.23
202.83
226.85
232.48
215.93
175.82
114.67
40.67
-38.41
-114.15
-179.04
-228.57
-261.80
-279.92
-285.72
-282.19
-272.36
-256.15
-235.18
-211.82
-188.29
-165.79
-143.98
-122.46
-101.55
-82.77
-68.59
-61.27
-61.36
-67.65
-77.74
-88.71
-98.53
-106.22
-111.55
-114.62
-115.65
-114.90
-113.38
-112.99
-115.86
-123.49
-135.69
-150.34
-164.12
-174.00
-178.25
-177.09
-172.13
-165.14
-156.98
-147.16
-134.30
-117.08
-95.35
-70.13
-43.18
-16.11
10.28
36.17
62.25
89.01
116.12
142.42
166.23
185.73
199.24
205.19
202.31
190.06
169.06
141.42
110.51
80.12
53.52
32.68
18.12
9.31
5.20
4.65
6.54
9.71
13.05
15.66
17.13
17.75
18.31
19.73
22.62
27.03
32.40
37.85
42.50
45.74
47.35
47.47
46.42
44.55
42.08
39.11
35.67
31.79
27.55
23.15
18.83
14.87
11.50
8.79
6.69
5.05
3.68
2.49
1.54
1.03
1.24
2.45
4.82
8.33
12.82
17.95
23.36
28.66
33.49
37.55
40.58
42.46
43.16
42.77
41.50
39.61
37.35
34.86
32.18
29.29
26.15
22.76
19.18
15.48
11.77
8.18
4.80
1.75
-0.92
-3.23
-5.32
-7.38
-9.59
-12.01
-14.58
-17.13
-19.51
-21.63
-23.56
-25.36
-27.00
-28.28
-28.87
-28.43
-26.73
-23.78
-19.82
-15.28
-10.65
-6.42
-2.95
-0.44
1.07
1.70
1.66
1.21
0.57
-0.09
-0.69
-1.25
-1.95
-3.02
-4.73
-7.23
-10.44
-14.00
-17.36
-19.98
-21.52
-21.95
-21.49
-20.47
-19.16
-17.75
-16.35
-15.09
-14.09
-13.46
-13.19
-13.14
-13.05
-12.65
-11.69
-10.02
-7.59
-4.47
-0.85
3.03
6.85
10.41
13.58
16.37
18.79
20.83
22.44
23.60
24.41
25.05
25.69
26.38
27.01
27.35
27.29
26.88
26.32
25.80
25.28
24.50
23.09
20.78
17.44
13.07
7.65
1.16
-6.27
-14.15
-21.53
-27.23
-30.21
-30.01
-26.92
-21.79
-15.64
-9.28
-3.14
2.61
7.85
12.29
15.51
17.12
16.97
15.25
12.43
9.08
5.63
2.26
-1.08
-4.57
-8.30
-12.16
-15.86
-18.97
-21.12
-22.15
-22.13
-21.36
-20.21
-19.03
-18.05
-17.36
-16.89
-16.52
-16.15
-15.76
-15.46
-15.41
-15.76
-16.56
-17.71
-18.95
-19.92
-20.27
-19.75
-18.28
-15.97
-13.03
-9.75
-6.41
-3.26
-0.48
1.75
3.34
4.28
4.63
4.51
4.08
3.48
2.87
2.33
1.95
1.81
1.95
2.38
3.04
3.79
4.40
4.69
4.52
3.90
2.93
1.76
0.46
-0.95
-2.59
-4.52
-6.75
-9.14
-11.42
-13.28
-14.44
-14.67
-13.87
-12.06
-9.41
-6.17
-2.70
0.64
3.58
5.93
7.61
8.63
9.05
8.89
8.22
7.12
5.74
4.29
3.00
2.06
1.59
1.59
2.01
2.70
3.51
4.30
4.96
5.37
5.48
5.23
4.67
3.88
2.96
2.01
1.09
0.21
-0.61
-1.32
-1.91
-2.36
-2.67
-2.82
-2.71
-2.18
-1.04
0.80
3.25
6.02
8.69
10.93
12.52
13.41
13.63
13.26
12.37
11.10
9.69
8.50
7.94
8.28
9.58
11.61
13.86
15.79
16.97
17.22
16.70
15.75
14.75
13.94
13.39
12.99
12.57
11.98
11.16
10.08
8.70
7.00
4.94
2.60
0.20
-1.93
-3.34
-3.68
-2.76
-0.63
2.35
5.68
8.83
11.41
13.26
14.43
15.07
15.29
15.13
14.53
13.48
12.03
10.34
8.61
7.00
5.57
4.28
3.09
1.99
0.98
0.06
-0.82
-1.80
-3.03
-4.56
-6.35
-8.29
-10.31
-12.42
-14.69
-17.19
-19.85
-22.42
-24.53
-25.79
-25.96
-24.96
-22.90
-19.99
-16.49
-12.66
-8.80
-5.19
-2.10
0.34
2.14
3.44
4.42
5.26
6.02
6.72
7.30
7.71
7.92
7.94
7.76
7.43
6.96
6.45
5.97
5.56
5.21
4.89
4.56
4.19
3.76
3.21
2.50
1.57
0.44
-0.78
-1.98
-3.00
-3.67
-3.85
-3.39
-2.17
-0.17
2.42
5.22
7.75
9.62
10.64
10.95
10.78
10.41
9.94
9.34
8.52
7.45
6.21
4.96
3.83
2.84
1.94
1.03
0.02
-1.08
-2.19
-3.19
-4.02
-4.65
-5.17
-5.73
-6.47
-7.52
-8.94
-10.71
-12.74
-14.88
-17.03
-19.19
-21.47
-24.02
-26.89
-29.93
-32.74
-34.84
-35.90
-35.93
-35.38
-34.92
-35.13
-36.32
-38.47
-41.49
-45.36
-50.15
-55.76
-61.65
-66.76
-69.78
-69.51
-65.30
-57.16
-45.54
-31.02
-13.95
5.54
27.35
51.08
75.93
100.59
123.48
142.99
157.71
166.74
169.78
167.16
159.81
149.00
136.19
122.79
109.92
98.23
87.74
77.88
67.65
56.08
42.71
27.95
13.11
-0.01
-9.85
-15.69
-17.94
-17.96
-17.48
-17.89
-19.88
-23.34
-27.68
-32.26
-36.64
-40.60
-44.07
-46.86
-48.65
-49.16
-48.28
-46.22
-43.46
-40.63
-38.21
-36.43
-35.16
-34.09
-32.84
-31.19
-29.17
-26.99
-24.95
-23.25
-21.84
-20.39
-18.44
-15.54
-11.55
-6.75
-1.78
2.54
5.52
6.81
6.49
5.01
2.94
0.81
-1.09
-2.66
-4.00
-5.20
-6.35
-7.44
-8.44
-9.28
-9.94
-10.42
-10.73
-10.94
-11.11
-11.30
-11.54
-11.84
-12.16
-12.46
-12.74
-13.03
-13.40
-13.90
-14.57
-15.38
-16.28
-17.17
-17.90
-18.28
-18.04
-16.97
-15.00
-12.28
-9.09
-5.83
-2.76
-0.03
2.36
4.45
6.21
7.55
8.35
8.52
8.10
7.21
6.01
4.69
3.32
1.89
0.35
-1.35
-3.18
-4.98
-6.57
-7.75
-8.44
-8.74
-8.81
-8.82
-8.88
-9.02
-9.25
-9.61
-10.19
-11.04
-12.04
-12.87
-13.07
-12.24
-10.17
-6.93
-2.85
1.64
6.10
10.24
13.85
16.84
19.11
20.65
21.49
21.75
21.65
21.42
21.20
21.02
20.75
20.21
19.27
17.92
16.27
14.56
13.00
11.66
10.55
9.53
8.43
7.15
5.67
4.03
2.31
0.61
-1.07
-2.78
-4.60
-6.58
-8.62
-10.53
-11.94
-12.51
-12.00
-10.38
-7.88
-4.84
-1.67
1.28
3.79
5.75
7.15
8.05
8.57
8.80
8.81
8.62
8.18
7.37
6.17
4.61
2.86
1.09
-0.50
-1.80
-2.75
-3.34
-3.60
-3.58
-3.38
-3.21
-3.25
-3.69
-4.61
-5.99
-7.76
-9.85
-12.26
-15.00
-18.07
-21.33
-24.51
-27.19
-28.89
-29.23
-27.97
-25.10
-20.84
-15.63
-9.98
-4.42
0.57
4.65
7.57
9.22
9.61
8.91
7.45
5.63
3.89
2.60
2.03
2.34
3.63
6.00
9.41
13.69
18.38
22.81
26.22
27.99
27.88
26.10
23.19
19.88
16.83
14.52
13.17
12.65
12.46
11.82
9.85
6.01
0.41
-5.98
-11.64
-14.96
-14.93
-11.51
-5.52
1.75
9.09
15.75
21.49
26.37
30.45
33.67
35.80
36.62
36.00
34.02
31.02
27.50
24.05
21.18
19.19
18.07
17.55
17.20
16.66
15.80
14.81
14.22
14.70
16.84
20.84
26.35
32.38
37.64
41.00
42.05
41.39
40.50
41.21
44.98
52.36
62.77
74.65
85.66
92.98
93.72
85.53
67.46
40.64
8.25
-25.32
-55.83
-80.60
-99.06
-112.23
-121.59
-128.04
-131.49
-131.28
-126.86
-118.51
-107.40
-95.22
-83.66
-73.89
-66.46
-61.33
-58.04
-55.91
-54.26
-52.59
-50.55
-47.77
-43.70
-37.80
-29.74
-19.56
-7.65
5.24
18.30
30.90
42.82
54.32
65.71
76.99
87.84
97.87
106.69
114.26
121.05
128.00
136.12
145.31
153.70
157.86
154.13
140.17
116.28
85.76
53.19
24.65
5.01
-4.11
-5.80
-5.31
-7.25
-14.23
-26.33
-42.70
-62.02
-83.33
-106.04
-129.58
-153.07
-175.83
-198.18
-221.54
-247.51
-275.84
-303.17
-322.91
-327.14
-309.70
-269.26
-210.57
-142.79
-76.15
-18.29
27.46
61.75
87.54
108.42
127.65
147.92
171.46
199.56
231.78
265.28
295.23
316.40
325.10
320.90
306.89
288.35
270.52
256.18
244.31
230.36
208.10
172.38
121.59
58.75
-9.19
-73.72
-127.51
-166.60
-191.03
-203.64
-208.09
-207.06
-201.51
-190.98
-174.58
-151.94
-123.41
-89.89
-52.65
-13.52
24.67
57.80
80.89
89.46
81.26
57.62
23.45
-14.24
-48.51
-74.65
-91.03
-98.62
-99.46
-95.00
-85.12
-68.48
-43.83
-11.59
25.06
60.38
87.61
101.23
99.05
82.96
58.07
30.63
5.81
-13.78
-27.96
-37.66
-43.61
-45.54
-42.60
-34.49
-22.49
-9.68
-0.04
3.10
-1.36
-11.81
-24.39
-34.61
-39.14
-37.07
-30.15
-22.04
-16.88
-17.71
-25.65
-39.76
-57.70
-76.77
-94.68
-109.77
-120.88
-127.23
-128.47
-124.95
-117.74
-108.23
-97.32
-84.87
-69.89
-51.75
-31.53
-12.52
0.73
4.56
-1.82
-15.75
-32.25
-46.06
-53.45
-52.93
-44.80
-30.47
-11.91
8.47
28.10
44.74
57.26
66.01
72.66
79.31
87.47
97.49
108.44
118.41
125.00
125.85
119.22
104.47
82.43
55.24
25.73
-3.52
-31.02
-56.44
-80.10
-101.97
-121.04
-135.49
-143.59
-144.85
-140.53
-133.20
-125.43
-118.35
-110.97
-100.68
-84.85
-62.41
-34.66
-4.74
23.80
48.40
68.10
83.14
94.17
101.50
104.93
104.30
100.00
93.24
85.80
79.26
74.19
69.70
63.45
52.50
34.53
8.88
-22.83
-57.08
-89.54
-116.44
-135.55
-146.47
-150.11
-147.79
-140.52
-128.85
-113.25
-94.75
-75.28
-57.44
-43.83
-36.18
-34.70
-37.92
-43.05
-46.81
-46.45
-40.62
-29.73
-15.77
-1.56
10.24
17.91
21.11
20.73
18.29
15.30
12.72
10.79
9.23
7.56
5.48
3.00
0.39
-1.94
-3.69
-4.72
-5.08
-4.95
-4.53
-4.07
-3.85
-4.17
-5.37
-7.62
-10.85
-14.51
-17.53
-18.42
-15.62
-7.94
4.98
22.35
42.37
62.62
80.66
94.63
103.60
107.58
107.34
104.16
99.52
94.95
91.77
90.96
92.77
96.59
101.01
104.28
105.04
102.92
98.84
94.57
91.85
91.44
92.64
93.55
91.90
85.95
75.02
59.67
41.46
22.66
5.73
-7.42
-16.16
-21.57
-26.12
-32.57
-42.51
-55.34
-68.30
-77.57
-79.87
-73.79
-60.06
-40.96
-19.34
2.11
21.11
35.83
45.04
48.21
45.88
39.53
31.18
22.84
16.03
11.40
8.78
7.23
5.39
1.88
-4.13
-12.52
-22.05
-30.75
-36.81
-39.41
-39.20
-38.02
-37.98
-40.43
-45.40
-51.70
-57.68
-61.98
-63.91
-63.32
-60.16
-54.17
-45.03
-32.73
-17.94
-2.03
13.33
26.66
37.20
44.92
50.41
54.57
58.24
62.05
66.16
70.32
73.88
76.07
76.36
74.72
71.74
68.36
65.53
63.72
62.81
62.22
61.37
59.93
57.90
55.35
52.12
47.67
41.43
33.10
23.03
12.12
1.42
-8.38
-17.20
-25.59
-34.33
-44.02
-54.93
-66.88
-79.46
-92.01
-103.75
-113.71
-120.87
-124.37
-123.76
-119.11
-111.08
-100.73
-89.35
-78.18
-68.12
-59.60
-52.49
-46.23
-40.14
-33.70
-26.80
-19.70
-12.91
-6.88
-1.76
2.64
6.77
11.10
15.86
21.00
26.19
31.07
35.46
39.45
43.42
47.79
52.86
58.64
64.81
70.85
76.23
80.59
83.84
86.18
88.14
90.39
93.52
97.82
103.12
108.81
114.05
118.11
120.77
122.56
124.75
128.92
136.25
146.76
158.77
169.09
173.87
170.02
156.42
134.58
108.10
81.32
57.78
39.03
24.48
11.83
-1.84
-19.01
-40.86
-66.84
-94.68
-121.01
-142.25
-155.76
-160.56
-157.66
-149.61
-139.72
-131.00
-125.61
-124.65
-128.49
-137.00
-149.71
-165.69
-183.40
-200.68
-215.01
-224.08
-226.23
-220.98
-208.94
-191.48
-170.19
-146.44
-121.40
-96.14
-71.91
-50.18
-32.37
-19.48
-11.66
-8.10
-7.21
-7.02
-5.74
-2.26
3.66
11.49
20.12
28.39
35.32
40.43
43.70
45.47
46.21
46.35
46.19
45.87
45.45
45.04
44.76
44.72
45.00
45.53
46.11
46.47
46.36
45.63
44.25
42.29
39.87
37.15
34.25
31.29
28.34
25.46
22.67
19.98
17.40
14.95
12.63
10.54
8.82
7.73
7.59
8.67
11.08
14.67
18.99
23.43
27.33
30.24
31.92
32.38
31.74
30.23
28.06
25.44
22.63
19.86
17.33
15.23
13.70
12.85
12.81
13.65
15.34
17.68
20.23
22.32
23.18
22.19
19.03
13.88
7.40
0.54
-5.77
-10.84
-14.39
-16.52
-17.52
-17.70
-17.25
-16.24
-14.67
-12.54
-9.83
-6.53
-2.65
1.68
6.21
10.52
14.18
16.88
18.51
19.21
19.20
18.64
17.58
16.03
14.08
12.00
10.15
8.89
8.35
8.36
8.51
8.37
7.66
6.32
4.51
2.49
0.55
-1.04
-2.08
-2.52
-2.48
-2.31
-2.43
-3.19
-4.58
-6.21
-7.35
-7.22
-5.29
-1.48
3.91
10.31
17.19
24.17
31.03
37.58
43.57
48.63
52.42
54.73
55.58
55.26
54.18
52.77
51.31
49.95
48.68
47.49
46.29
44.89
42.96
40.02
35.62
29.57
22.10
13.83
5.46
-2.52
-10.11
-17.63
-25.41
-33.45
-41.22
-47.89
-52.68
-55.23
-55.82
-55.08
-53.69
-52.06
-50.29
-48.32
-46.16
-44.01
-42.21
-41.00
-40.41
-40.17
-39.81
-38.91
-37.21
-34.77
-31.86
-28.90
-26.24
-24.12
-22.55
-21.41
-20.46
-19.48
-18.33
-16.98
-15.57
-14.24
-13.07
-12.00
-10.89
-9.60
-8.07
-6.48
-5.05
-4.02
-3.43
-3.09
-2.70
-1.91
-0.51
1.58
4.27
7.42
10.84
14.30
17.59
20.45
22.68
24.08
24.51
23.96
22.52
20.42
18.00
15.65
13.73
12.47
11.90
11.87
12.06
12.23
12.19
11.91
11.41
10.75
10.00
9.13
8.05
6.66
4.90
2.83
0.61
-1.54
-3.34
-4.59
-5.21
-5.23
-4.76
-3.78
-2.13
0.39
3.88
8.36
13.56
18.99
24.13
28.47
31.99
35.06
38.13
41.50
45.50
50.03
54.71
59.01
62.06
63.75
64.61
65.44
67.09
70.64
76.55
84.64
94.09
102.99
110.11
114.84
117.20
118.10
119.77
124.74
134.79
150.04
167.56
183.65
194.69
198.24
189.05
165.46
128.98
83.68
40.74
4.22
-25.70
-50.96
-75.72
-102.41
-131.50
-162.36
-193.56
-223.23
-250.38
-272.47
-286.62
-290.77
-284.34
-268.10
-244.12
-214.90
-182.88
-150.86
-120.42
-93.01
-70.00
-52.40
-40.54
-34.46
-33.63
-36.45
-40.20
-39.49
-29.21
-6.13
29.37
72.77
116.55
152.84
176.20
181.97
172.21
152.26
127.67
101.96
76.57
52.08
29.48
10.56
-2.56
-7.79
-4.87
4.34
15.87
24.38
24.67
13.07
-10.95
-44.72
-82.57
-118.00
-145.46
-161.77
-166.52
-161.58
-150.04
-135.15
-119.92
-106.76
-97.88
-94.79
-97.72
-105.00
-113.38
-119.03
-118.61
-110.57
-95.53
-76.02
-55.54
-37.37
-23.66
-14.88
-11.06
-11.87
-17.01
-26.28
-39.45
-55.67
-72.91
-87.75
-95.94
-93.66
-78.94
-52.79
-19.03
16.96
50.07
77.09
97.21
111.59
122.30
131.50
140.86
151.39
163.11
174.60
182.61
182.43
169.39
140.97
98.62
47.88
-3.28
-47.39
-79.83
-99.72
-109.00
-110.53
-106.43
-97.62
-84.42
-67.45
-48.22
-28.67
-10.48
5.71
20.34
34.62
49.62
65.59
81.47
95.05
103.56
104.70
97.65
83.52
64.96
45.24
27.02
11.57
-1.15
-11.94
-21.45
-29.52
-35.19
-37.26
-34.94
-28.48
-19.11
-8.71
0.87
8.43
13.71
17.28
20.18
23.47
27.91
33.92
41.68
51.14
61.74
72.19
80.31
83.48
79.52
67.60
48.76
25.52
0.95
-22.38
-43.10
-61.00
-76.45
-89.79
-100.92
-109.26
-113.97
-114.15
-109.07
-98.37
-82.34
-62.15
-39.90
-18.23
0.33
14.06
22.50
26.45
27.48
27.28
27.05
27.23
27.48
27.16
25.82
23.59
21.24
19.91
20.58
23.57
28.55
34.76
41.52
48.61
56.31
65.17
75.57
87.50
100.39
113.01
123.33
128.54
125.44
111.51
86.10
51.41
12.14
-26.01
-58.45
-83.25
-101.32
-115.05
-126.46
-135.90
-142.06
-143.16
-138.16
-127.31
-111.76
-92.66
-70.69
-46.11
-19.57
7.42
32.50
53.12
67.45
74.80
75.56
70.70
61.28
48.31
32.97
16.77
1.62
-10.56
-18.33
-21.11
-19.16
-13.33
-4.68
5.64
16.21
25.11
30.01
28.74
20.15
4.79
-15.06
-36.11
-55.14
-70.09
-80.40
-86.66
-89.87
-90.71
-89.31
-85.48
-79.13
-70.62
-60.81
-50.78
-41.50
-33.57
-27.12
-21.87
-17.32
-13.01
-8.59
-3.91
1.02
6.07
11.11
16.01
20.67
24.94
28.61
31.46
33.30
34.07
33.92
33.17
32.21
31.33
30.68
30.16
29.60
28.85
27.84
26.60
25.25
23.85
22.35
20.60
18.33
15.30
11.37
6.63
1.32
-4.17
-9.42
-14.15
-18.24
-21.82
-25.08
-28.21
-31.25
-34.09
-36.56
-38.38
-39.31
-39.12
-37.64
-34.84
-30.80
-25.76
-20.03
-13.96
-7.83
-1.87
3.80
9.05
13.77
17.81
21.00
23.20
24.34
24.46
23.67
22.23
20.53
19.06
18.34
18.79
20.66
23.85
27.96
32.26
35.98
38.49
39.51
39.28
38.50
38.21
39.37
42.50
47.42
53.23
58.69
62.64
64.47
64.31
62.90
61.34
60.76
62.10
65.95
72.49
81.40
91.93
102.92
112.93
120.36
123.63
121.52
113.61
100.85
85.91
72.63
64.81
64.55
71.12
81.20
90.45
95.41
94.88
89.75
81.76
72.09
61.04
48.88
37.10
28.78
27.35
34.19
46.94
59.83
66.29
62.43
49.12
31.36
15.31
4.75
-0.77
-5.14
-12.63
-24.72
-38.70
-49.00
-50.26
-40.31
-21.28
1.57
22.36
36.95
43.94
44.14
38.93
28.99
13.72
-8.25
-37.82
-74.29
-114.80
-154.57
-187.83
-209.27
-215.50
-206.29
-185.06
-158.38
-134.45
-120.97
-122.72
-140.10
-168.97
-202.02
-231.42
-251.40
-259.95
-258.68
-251.16
-240.59
-228.13
-212.71
-192.24
-165.14
-131.79
-94.97
-59.66
-32.00
-17.68
-19.98
-38.06
-66.53
-96.79
-120.09
-130.70
-127.70
-114.45
-96.08
-76.47
-56.58
-34.89
-9.11
21.99
57.90
96.73
136.06
173.70
207.83
236.96
259.96
276.02
284.48
284.80
276.32
258.49
231.51
197.04
158.40
120.12
86.91
62.33
47.89
42.87
44.71
49.97
55.24
57.93
56.86
52.08
44.13
33.19
18.57
-1.02
-26.38
-56.59
-88.66
-118.21
-141.13
-155.22
-160.53
-158.60
-150.95
-137.96
-119.03
-93.92
-64.17
-33.71
-7.94
8.43
13.53
9.30
0.87
-5.38
-4.07
7.54
29.13
58.11
90.90
123.96
154.38
180.08
199.79
213.07
220.25
222.15
219.66
213.37
203.36
189.38
171.33
149.59
125.18
99.53
74.17
50.46
29.44
11.76
-2.49
-14.05
-24.65
-36.89
-53.72
-77.50
-109.17
-147.38
-188.17
-225.37
-252.02
-262.47
-254.41
-229.77
-194.07
-154.20
-115.75
-81.38
-50.95
-23.19
2.32
24.17
39.64
46.19
43.11
32.04
16.36
0.16
-13.08
-20.92
-22.08
-16.73
-6.84
3.88
10.86
10.21
0.65
-16.47
-37.63
-58.37
-74.64
-83.44
-82.95
-72.76
-54.26
-30.25
-5.28
15.81
29.66
35.12
33.10
25.54
14.00
-0.69
-17.41
-35.08
-52.15
-64.70
-69.37
-64.43
-50.35
-30.10
-11.28
2.32
9.80
12.27
12.06
12.42
15.22
20.60
26.83
31.21
32.00
28.96
23.99
20.52
21.70
28.76
40.44
53.38
63.72
69.11
68.84
63.62
54.44
41.16
21.85
-6.14
-44.21
-90.35
-138.20
-179.04
-204.84
-211.23
-199.01
-173.19
-140.05
-104.27
-67.29
-27.70
16.19
63.98
112.41
156.10
189.50
209.20
214.62
207.23
189.36
162.98
129.69
91.67
52.61
17.58
-8.10
-21.31
-22.52
-15.44
-5.31
3.36
8.22
8.90
5.92
-0.05
-8.98
-21.01
-35.46
-49.59
-59.73
-62.57
-56.80
-45.94
-33.85
-23.98
-18.66
-18.20
-22.40
-30.46
-40.96
-51.75
-60.03
-62.38
-56.35
-41.35
-18.88
7.95
35.47
60.53
81.03
95.79
104.34
106.07
100.15
85.94
63.49
33.88
-0.48
-35.99
-68.18
-92.23
-104.12
-101.68
-85.38
-58.65
-27.58
-0.07
15.82
13.89
-8.05
-46.91
-94.50
-139.49
-170.83
-181.11
-168.56
-136.67
-92.07
-41.85
8.13
53.57
91.01
117.26
129.60
126.83
110.05
82.79
50.01
16.65
-13.17
-36.10
-49.12
-49.36
-34.96
-6.52
32.10
74.27
112.49
140.63
155.40
156.34
144.78
122.76
92.55
56.97
19.80
-14.48
-41.91
-60.25
-69.66
-72.30
-71.37
-70.05
-70.82
-75.22
-83.81
-96.16
-110.86
-125.80
-138.63
-147.44
-151.10
-149.38
-142.92
-133.09
-121.83
-111.28
-103.36
-99.14
-98.40
-99.60
-100.30
-97.75
-89.73
-74.96
-53.64
-27.56
0.25
26.34
47.78
63.09
72.58
78.16
82.60
88.60
98.21
112.71
132.70
158.12
188.11
220.65
252.38
279.06
296.39
301.30
292.97
273.26
246.07
216.12
187.19
160.91
136.69
112.75
87.60
61.12
34.63
9.97
-11.79
-31.09
-49.66
-69.45
-91.19
-113.51
-133.11
-146.00
-149.21
-142.26
-127.49
-109.27
-92.32
-80.13
-74.04
-73.15
-75.04
-76.66
-75.21
-68.90
-57.46
-42.35
-26.43
-12.91
-3.99
0.21
1.78
3.88
8.91
16.92
25.51
31.00
30.32
22.57
9.58
-4.60
-14.74
-15.72
-3.83
21.86
58.56
99.78
136.57
160.03
163.91
146.46
110.67
63.14
12.10
-34.54
-70.49
-91.90
-97.76
-89.99
-73.10
-53.11
-35.90
-25.49
-23.11
-27.37
-35.55
-45.02
-54.22
-62.68
-70.21
-75.87
-77.49
-72.18
-57.67
-33.89
-3.86
26.88
52.22
67.81
72.71
69.50
62.78
57.15
55.35
57.71
62.75
68.33
72.87
75.96
78.35
81.65
87.67
97.70
111.70
127.71
141.74
148.67
143.89
125.09
93.45
53.50
11.67
-25.67
-53.87
-70.68
-75.97
-71.09
-58.33
-40.74
-21.81
-4.95
7.52
15.16
19.53
23.26
28.42
35.17
41.38
43.53
38.38
24.56
3.18
-22.68
-49.24
-73.42
-93.73
-110.37
-124.48
-137.12
-148.52
-157.86
-163.81
-165.29
-162.10
-154.86
-144.30
-130.45
-112.36
-88.74
-59.38
-26.23
6.50
33.59
50.98
57.73
56.51
52.44
50.72
54.36
62.98
73.36
81.27
83.82
81.11
76.34
74.42
79.94
95.09
118.75
146.74
173.18
192.21
199.53
193.17
173.50
142.50
103.02
57.98
10.11
-37.95
-83.50
-123.73
-156.22
-179.51
-193.77
-200.80
-203.45
-204.48
-205.63
-207.24
-208.55
-208.32
-205.25
-198.31
-186.76
-170.09
-148.01
-120.45
-87.53
-49.73
-8.16
34.92
75.90
110.24
133.55
143.09
138.98
124.38
104.45
84.70
69.43
60.80
58.88
62.19
68.26
74.20
77.25
75.42
67.93
55.41
39.48
22.08
4.76
-11.83
-28.02
-44.69
-62.70
-82.25
-102.39
-121.01
-135.21
-142.10
-139.56
-126.96
-105.28
-76.84
-44.90
-13.22
14.07
32.82
39.50
32.28
12.07
-16.87
-47.42
-71.34
-81.59
-74.85
-52.71
-21.33
10.84
35.93
49.42
51.10
44.18
33.16
21.39
9.85
-2.59
-17.69
-36.31
-57.52
-78.99
-98.08
-112.86
-122.60
-127.37
-127.27
-121.98
-111.01
-94.57
-74.40
-53.70
-36.07
-23.93
-17.39
-14.31
-11.47
-6.22
2.26
12.76
22.81
29.77
31.70
27.81
18.55
5.49
-8.97
-22.10
-31.50
-35.90
-35.67
-32.83
-30.51
-32.05
-40.04
-55.34
-76.49
-99.75
-119.82
-131.31
-130.28
-115.37
-87.89
-51.12
-9.19
33.67
73.67
107.86
134.61
154.14
168.56
181.14
194.86
211.01
228.43
243.90
253.64
254.82
246.44
229.22
204.97
175.89
144.39
113.11
84.91
62.37
47.15
39.52
38.33
41.47
46.44
50.83
52.44
49.39
40.23
24.32
2.20
-24.37
-52.66
-79.59
-102.34
-118.77
-127.63
-128.76
-123.22
-113.26
-101.93
-92.35
-86.75
-85.71
-87.81
-89.95
-88.13
-78.64
-59.00
-28.81
9.93
52.98
94.76
129.77
154.23
167.27
171.07
169.83
168.08
168.75
172.00
175.21
174.19
164.95
145.55
117.20
84.24
53.00
30.04
20.35
25.71
43.89
68.77
91.72
103.93
99.28
76.39
39.09
-4.96
-47.20
-81.00
-103.36
-114.83
-118.01
-115.74
-109.97
-101.79
-92.07
-82.09
-73.71
-68.99
-69.55
-76.23
-88.90
-106.32
-126.16
-145.20
-159.82
-166.80
-164.31
-152.47
-133.13
-109.21
-83.62
-58.63
-35.79
-16.26
-1.23
7.99
10.37
5.89
-3.78
-15.29
-24.12
-25.81
-17.36
1.72
29.06
59.89
88.43
109.29
118.77
115.47
100.23
75.54
44.84
11.56
-21.70
-53.61
-83.90
-112.36
-137.82
-157.60
-168.24
-167.15
-154.39
-133.47
-110.39
-91.29
-79.82
-75.75
-75.57
-74.62
-69.40
-58.93
-44.55
-28.72
-13.83
-1.66
6.48
9.33
5.80
-4.54
-20.63
-39.59
-57.32
-69.95
-75.55
-75.15
-72.46
-72.19
-77.86
-90.04
-106.07
-121.15
-130.28
-130.01
-119.25
-98.86
-70.54
-35.82
4.16
48.11
93.76
137.62
175.40
203.22
218.71
221.73
214.13
199.11
180.37
161.38
145.05
133.50
128.14
129.57
137.42
150.28
165.76
180.98
193.10
200.04
200.92
196.22
187.29
175.79
162.95
149.18
134.26
117.89
100.37
82.87
67.26
55.27
47.55
42.99
38.69
30.64
14.82
-11.63
-49.38
-96.23
-146.88
-193.39
-226.71
-238.99
-226.13
-189.45
-135.65
-74.99
-18.24
26.25
54.36
66.28
65.33
56.15
43.00
28.84
14.93
1.03
-13.92
-30.85
-49.73
-69.15
-86.72
-100.19
-108.43
-112.09
-113.08
-113.34
-113.52
-112.23
-106.28
-91.89
-66.42
-29.68
15.38
63.15
106.71
139.60
157.38
158.79
145.79
122.84
95.59
69.47
48.67
35.78
31.70
35.90
46.72
61.54
76.92
89.08
94.49
90.76
77.41
56.27
31.19
7.02
-11.90
-23.21
-27.30
-27.17
-27.22
-31.63
-43.01
-61.79
-86.49
-114.50
-142.84
-168.54
-188.92
-201.77
-205.84
-201.17
-189.21
-172.25
-152.48
-131.12
-108.22
-83.58
-57.75
-32.91
-12.27
1.59
8.51
11.62
16.34
28.11
50.18
82.58
122.61
166.15
208.85
246.41
274.39
288.25
284.27
261.46
223.16
177.21
134.02
103.28
90.77
96.67
116.19
141.80
165.96
183.11
190.34
187.12
174.39
153.88
127.68
98.18
68.02
39.75
15.30
-4.63
-20.95
-36.05
-53.31
-75.85
-105.19
-140.30
-177.33
-210.53
-233.89
-242.98
-236.42
-216.49
-188.50
-159.19
-134.66
-118.66
-111.80
-111.83
-114.89
-117.10
-115.91
-110.69
-102.71
-94.71
-90.21
-92.53
-103.65
-122.77
-145.77
-165.82
-175.48
-169.57
-147.38
-112.89
-73.25
-36.06
-6.99
11.37
19.47
19.95
16.58
13.46
14.21
20.87
33.22
48.57
62.95
72.97
77.52
78.48
79.85
86.07
100.16
122.73
152.00
184.39
215.47
240.79
256.57
260.19
250.48
227.82
193.94
151.71
104.69
56.97
12.80
-24.12
-51.63
-69.86
-81.23
-89.29
-96.81
-104.34
-110.04
-111.01
-105.34
-93.71
-79.52
-67.37
-60.89
-60.60
-63.71
-65.36
-60.79
-47.42
-25.91
0.02
25.15
44.73
56.56
60.95
59.95
56.11
51.54
47.66
45.44
45.62
48.53
54.59
63.06
72.12
79.37
82.82
81.71
76.90
70.85
67.39
72.18
90.21
123.42
168.90
218.76
262.34
290.16
297.65
279.64
238.52
181.65
118.35
56.56
0.70
-47.96
-89.47
-123.73
-150.52
-169.12
-180.08
-185.16
-186.30
-184.89
-181.68
-177.05
-171.39
-165.19
-157.85
-148.28
-135.73
-120.39
-103.73
-88.22
-76.23
-69.01
-66.19
-65.24
-62.45
-55.24
-42.83
-26.87
-11.02
0.56
5.44
4.18
0.65
0.05
5.84
17.93
33.02
46.38
54.60
56.82
53.93
46.71
34.44
14.92
-13.20
-48.38
-85.82
-118.64
-140.74
-149.17
-146.29
-135.85
-122.95
-111.91
-104.89
-101.29
-98.20
-91.82
-79.26
-59.98
-36.13
-12.14
7.60
20.73
28.05
32.91
39.28
49.70
64.11
80.33
95.07
105.56
110.31
109.04
102.16
90.30
74.51
56.40
38.27
22.37
10.20
1.81
-4.26
-9.97
-17.46
-27.87
-40.78
-54.17
-65.29
-71.63
-71.95
-66.69
-57.75
-47.74
-38.81
-32.09
-27.73
-25.47
-25.30
-27.65
-33.23
-42.24
-53.81
-65.47
-73.69
-74.83
-66.42
-47.86
-20.46
13.10
49.42
84.95
116.17
139.61
152.13
151.42
137.00
110.91
77.62
43.17
13.65
-6.43
-15.51
-15.48
-11.20
-8.82
-13.32
-26.52
-46.18
-66.69
-81.26
-84.73
-75.55
-55.72
-29.19
-0.09
27.91
51.18
65.65
66.97
51.83
19.60
-26.80
-80.72
-132.53
-171.66
-190.10
-185.17
-160.08
-121.85
-78.57
-37.48
-3.41
21.14
35.45
40.28
37.68
31.23
26.38
29.48
45.45
75.86
116.45
157.30
186.16
193.64
177.83
145.26
109.06
78.09
56.59
43.30
33.96
25.06
16.40
11.26
13.84
25.94
44.44
63.08
73.93
70.76
51.21
17.22
-25.53
-69.26
-106.39
-132.93
-147.71
-152.42
-150.43
-145.64
-140.96
-137.16
-133.21
-128.07
-120.34
-111.24
-101.50
-90.10
-71.76
-41.67
0.75
49.85
94.91
124.57
132.26
117.24
88.56
59.17
38.65
29.51
28.25
29.26
28.57
25.22
20.13
14.59
9.35
5.37
4.23
8.93
22.32
44.63
72.36
99.13
116.69
120.38
110.13
89.80
64.86
39.76
16.80
-3.39
-20.66
-34.17
-42.33
-44.21
-40.19
-32.20
-23.35
-17.35
-16.64
-22.05
-32.45
-45.02
-56.68
-64.86
-68.27
-67.11
-62.70
-56.77
-50.88
-45.85
-40.87
-35.34
-28.34
-19.34
-8.81
1.65
10.03
14.90
16.40
16.27
16.78
19.60
24.70
30.42
34.43
35.16
32.62
28.42
24.96
24.18
26.55
30.90
34.91
36.20
33.31
26.30
15.79
2.71
-12.14
-27.91
-43.06
-55.25
-61.98
-61.90
-55.88
-46.77
-37.94
-31.35
-26.49
-20.96
-12.30
0.06
14.17
26.75
34.81
37.47
36.31
33.76
31.17
28.07
22.47
12.64
-1.60
-18.27
-33.95
-44.85
-48.15
-43.08
-31.26
-17.11
-6.72
-5.98
-17.85
-41.00
-69.90
-96.78
-114.34
-118.59
-110.06
-92.87
-72.75
-54.33
-40.42
-31.79
-27.66
-25.88
-24.14
-20.62
-14.44
-5.90
4.52
15.99
27.81
39.68
52.23
66.04
81.13
97.20
113.93
132.58
154.78
181.91
210.43
236.47
255.70
265.00
264.09
249.60
223.16
187.81
145.33
95.56
39.14
-20.30
-75.48
-117.74
-141.63
-146.97
-140.04
-130.27
-125.76
-129.72
-140.82
-156.28
-172.18
-185.36
-192.37
-190.14
-176.36
-150.63
-115.19
-75.21
-37.57
-8.04
10.65
20.20
24.94
29.42
36.25
44.58
51.68
54.27
50.53
41.02
28.95
18.74
14.46
18.46
30.65
48.52
67.74
83.57
92.24
92.17
84.06
70.19
53.21
35.07
16.76
-1.47
-19.20
-35.53
-49.00
-58.13
-61.95
-60.26
-53.71
-43.61
-31.81
-20.34
-11.07
-5.33
-3.57
-5.18
-8.62
-12.14
-14.42
-14.96
-13.94
-11.65
-8.08
-2.79
5.07
16.25
30.69
47.30
64.35
80.10
93.03
101.58
103.46
96.45
79.97
56.24
30.45
9.17
-2.67
-4.84
-2.98
-6.88
-24.99
-59.44
-104.12
-147.00
-175.29
-180.95
-163.68
-128.21
-85.25
-46.92
-21.59
-11.17
-12.36
-20.46
-32.13
-45.58
-58.91
-69.42
-73.19
-66.88
-50.56
-29.12
-10.91
-4.45
-14.33
-39.03
-71.60
-102.06
-120.37
-120.65
-102.92
-72.14
-35.20
2.19
37.07
68.75
97.53
123.27
144.63
159.91
168.61
172.46
175.14
180.43
190.35
204.53
220.76
235.96
247.44
253.43
252.95
245.43
230.56
208.38
179.68
145.63
106.81
63.06
13.95
-40.10
-96.94
-152.70
-202.96
-244.10
-272.38
-285.69
-284.03
-269.61
-245.97
-216.67
-184.37
-150.88
-117.28
-85.03
-56.25
-32.97
-16.53
-7.40
-5.30
-9.08
-16.42
-22.94
-23.11
-12.83
9.55
41.88
78.46
111.71
135.01
142.35
134.23
115.50
91.97
67.90
45.08
23.74
4.13
-12.61
-24.70
-30.48
-30.16
-26.05
-21.34
-18.97
-20.27
-24.66
-30.18
-34.37
-35.00
-31.12
-23.20
-12.64
-1.58
7.83
13.52
14.02
9.03
-0.08
-10.84
-20.48
-26.91
-29.40
-28.60
-25.97
-22.83
-19.82
-16.76
-13.35
-9.66
-6.26
-3.91
-3.07
-3.60
-4.81
-5.83
-5.88
-4.70
-2.53
0.14
2.80
5.09
6.84
8.07
8.82
9.14
9.05
8.49
7.63
6.84
6.53
6.90
7.76
8.54
8.43
6.77
3.46
-0.87
-5.12
-8.02
-8.54
-6.20
-1.13
5.60
12.00
15.17
11.94
0.04
-20.48
-46.52
-72.44
-91.94
-100.40
-96.40
-81.91
-60.99
-37.91
-15.61
4.70
23.08
39.64
53.62
63.80
68.96
68.61
63.35
54.86
45.40
37.51
33.11
32.30
33.84
35.72
36.43
36.06
36.48
40.15
49.18
63.56
78.70
88.26
87.09
73.51
49.71
20.11
-10.20
-35.09
-47.16
-39.96
-9.44
42.97
108.62
172.54
217.59
225.72
188.15
111.56
16.29
-71.10
-128.98
-148.59
-135.41
-104.50
-72.95
-54.64
-53.57
-68.53
-95.98
-132.10
-172.93
-213.90
-249.62
-269.50
-266.44
-238.41
-189.86
-130.04
-70.35
-20.91
12.16
27.80
29.55
23.68
18.38
21.34
37.78
68.16
107.11
144.60
169.42
174.31
158.90
130.47
99.58
74.66
58.36
48.13
39.99
32.03
26.41
27.05
36.63
54.15
74.94
92.59
100.60
95.15
74.98
41.57
-0.84
-44.97
-81.84
-103.56
-106.62
-93.50
-72.06
-52.07
-41.07
-41.66
-51.15
-63.29
-71.59
-72.60
-66.26
-55.87
-45.95
-40.19
-39.64
-41.89
-41.83
-34.45
-17.83
4.92
25.95
36.45
30.70
8.59
-23.94
-57.38
-82.50
-93.42
-87.31
-67.44
-37.52
-0.86
39.20
79.01
114.16
139.60
150.64
144.54
121.55
84.38
41.26
2.09
-25.01
-36.01
-31.84
-17.44
0.59
16.39
26.73
30.77
28.88
22.47
13.27
3.84
-2.42
-2.12
6.56
23.05
44.02
63.73
76.31
78.55
71.04
57.15
41.09
25.97
13.32
3.63
-2.96
-6.34
-6.79
-5.75
-5.98
-10.79
-22.62
-41.66
-65.78
-90.95
-112.72
-127.08
-131.08
-123.10
-103.08
-72.78
-36.29
-0.41
28.05
42.89
41.17
24.90
0.71
-22.44
-36.67
-38.20
-28.27
-11.96
4.13
14.55
16.37
9.52
-3.76
-19.59
-33.25
-40.20
-37.46
-25.24
-7.32
10.10
21.06
22.65
16.10
5.69
-3.80
-9.41
-11.11
-10.41
-9.78
-11.12
-14.73
-19.60
-23.54
-24.05
-18.64
-5.24
17.17
47.06
80.16
110.29
131.47
140.20
136.80
125.27
110.18
96.81
88.11
83.65
80.04
72.63
57.73
34.19
4.18
-27.53
-54.85
-72.63
-77.87
-70.22
-51.78
-26.70
-0.73
19.62
27.95
19.69
-6.53
-47.63
-96.25
-142.60
-177.40
-194.63
-192.87
-174.65
-144.19
-105.40
-60.75
-11.73
39.79
90.30
134.59
167.14
183.94
184.32
171.12
149.54
125.01
101.12
78.79
56.71
32.80
5.81
-23.71
-53.27
-79.23
-97.76
-105.94
-102.72
-89.22
-68.71
-45.69
-24.72
-9.09
-0.35
1.36
-3.53
-14.58
-31.07
-51.17
-71.27
-86.36
-91.63
-84.42
-65.40
-38.04
-6.94
24.02
52.43
76.71
94.94
104.17
101.20
84.12
53.89
14.44
-28.38
-68.68
-101.96
-125.60
-138.70
-141.33
-134.30
-119.03
-97.50
-72.06
-45.25
-19.69
1.98
17.05
23.22
19.19
5.32
-16.35
-42.72
-70.74
-98.08
-122.86
-142.78
-154.25
-152.55
-133.10
-93.51
-35.33
35.41
109.29
175.94
226.72
256.94
266.62
259.83
242.62
220.66
197.63
174.80
151.63
127.17
101.09
74.00
47.12
21.80
-0.95
-20.40
-35.91
-46.85
-52.79
-53.70
-50.41
-44.82
-39.75
-38.26
-42.56
-52.81
-66.49
-78.85
-84.21
-78.01
-58.52
-27.70
9.34
45.76
74.81
91.63
94.27
84.08
65.18
43.29
24.12
11.43
5.65
3.62
-0.24
-11.55
-33.31
-64.16
-98.61
-129.12
-149.12
-155.16
-147.86
-131.07
-110.18
-90.69
-77.46
-74.42
-83.89
-105.40
-134.60
-163.44
-182.04
-181.85
-158.51
-113.11
-51.60
17.46
85.30
144.76
191.21
222.70
239.81
245.05
241.85
233.66
223.22
212.43
202.70
195.41
191.88
192.52
195.67
197.28
191.71
173.55
139.81
91.33
32.77
-28.54
-84.65
-129.01
-157.91
-170.84
-169.90
-158.73
-141.29
-121.40
-102.97
-89.55
-83.46
-85.23
-93.36
-104.93
-116.50
-124.61
-127.47
-124.36
-115.29
-100.61
-80.99
-57.28
-30.52
-2.48
25.13
50.73
72.95
90.55
102.36
107.49
105.80
98.26
87.06
75.16
65.20
58.72
55.63
54.48
53.31
50.68
46.37
41.49
38.07
38.00
42.28
50.11
58.64
63.42
59.68
43.54
13.13
-30.76
-84.44
-141.12
-191.25
-223.55
-227.46
-196.68
-132.54
-45.00
49.64
133.89
195.01
228.51
237.65
229.50
210.43
183.69
150.58
113.28
77.31
50.84
41.47
52.39
80.41
117.01
151.83
176.27
185.31
177.34
153.26
115.40
67.67
15.61
-34.01
-74.66
-101.90
-114.71
-115.15
-106.85
-93.55
-77.99
-62.39
-49.30
-42.04
-44.09
-57.44
-80.99
-109.92
-136.61
-152.90
-152.90
-135.14
-103.23
-64.89
-29.38
-4.51
5.85
2.62
-9.38
-24.08
-36.95
-47.02
-56.75
-70.14
-89.75
-114.63
-140.27
-160.73
-171.79
-173.38
-169.24
-164.17
-160.53
-156.41
-146.96
-127.89
-98.51
-62.10
-23.12
16.26
57.75
104.96
159.19
216.11
265.89
297.17
302.22
280.29
237.17
181.81
122.65
65.62
14.59
-27.27
-56.75
-71.75
-72.74
-63.63
-50.99
-41.87
-41.17
-49.89
-64.72
-79.23
-86.55
-82.29
-66.80
-45.83
-28.97
-26.31
-44.18
-81.95
-131.32
-178.96
-211.45
-220.16
-204.23
-170.51
-130.68
-96.78
-77.34
-75.11
-87.68
-109.34
-133.75
-155.39
-170.14
-175.43
-169.80
-152.22
-121.61
-77.56
-21.45
42.23
106.06
161.05
199.10
215.34
209.34
187.21
159.99
138.71
128.80
128.62
132.24
134.00
131.63
126.09
119.39
111.82
102.36
88.67
70.59
51.65
37.78
34.58
44.17
64.27
87.77
106.09
112.57
104.94
84.90
56.51
24.94
-6.14
-33.07
-52.46
-62.02
-61.56
-53.12
-40.49
-27.89
-18.70
-14.45
-14.25
-15.49
-14.43
-8.19
4.30
21.40
39.07
52.39
57.41
52.97
40.73
24.19
6.67
-9.99
-25.59
-40.62
-54.98
-67.46
-76.13
-79.30
-76.26
-67.46
-54.03
-37.46
-19.52
-2.47
10.93
18.08
17.54
10.21
-0.79
-10.65
-15.24
-13.71
-8.81
-4.89
-5.10
-9.99
-17.49
-24.69
-29.42
-31.15
-30.74
-29.39
-27.98
-27.03
-27.67
-30.64
-36.60
-45.33
-55.14
-63.12
-66.19
-62.78
-53.56
-41.48
-30.09
-21.84
-16.76
-12.76
-7.06
2.13
14.96
30.56
47.79
66.24
86.37
108.70
132.63
155.62
173.63
179.93
170.51
145.88
111.42
75.14
44.00
21.17
5.92
-4.64
-13.10
-19.73
-23.22
-21.89
-15.30
-4.94
6.19
14.71
17.77
13.59
2.34
-13.19
-29.12
-40.42
-42.34
-32.32
-11.53
15.04
39.66
54.97
57.37
48.13
32.09
14.70
-0.51
-12.69
-22.79
-31.82
-39.50
-44.49
-45.59
-42.72
-37.23
-31.28
-27.07
-25.75
-27.19
-30.09
-32.75
-33.87
-33.00
-30.56
-27.49
-24.79
-23.25
-23.21
-24.47
-26.27
-27.27
-25.67
-19.85
-9.36
4.77
19.62
31.01
34.98
28.98
12.63
-12.22
-41.92
-71.49
-95.25
-107.69
-104.71
-85.09
-51.42
-9.68
32.48
68.36
94.33
110.64
120.48
128.09
136.45
145.79
153.46
154.86
145.37
122.21
85.71
39.22
-11.81
-61.51
-105.02
-138.86
-160.95
-170.27
-167.20
-153.66
-133.13
-109.61
-86.63
-66.47
-49.87
-36.83
-27.56
-23.51
-27.16
-40.99
-65.32
-97.48
-132.59
-164.70
-188.38
-199.44
-195.87
-178.00
-148.45
-111.49
-72.34
-38.97
-19.54
-18.38
-32.14
-50.21
-58.06
-45.95
-11.51
40.90
101.90
161.69
210.81
244.83
264.18
272.44
273.88
272.24
270.88
271.69
275.39
281.50
288.58
293.91
294.01
285.62
261.73
220.75
166.24
105.94
48.82
2.01
-31.32
-51.94
-63.35
-69.85
-74.38
-79.01
-84.76
-91.82
-99.31
-105.66
-109.33
-109.64
-107.17
-102.60
-97.11
-92.00
-88.37
-87.02
-87.70
-88.90
-87.98
-81.87
-67.92
-45.85
-18.44
9.21
29.96
38.70
35.12
23.51
10.12
-0.11
-5.74
-8.62
-11.38
-15.69
-20.93
-24.71
-24.49
-19.13
-9.54
1.23
8.64
8.21
-3.45
-26.72
-58.32
-91.94
-120.22
-137.10
-139.82
-130.64
-112.86
-90.88
-68.67
-49.10
-33.56
-22.23
-14.48
-9.47
-6.18
-3.48
-0.81
2.07
5.14
8.01
9.76
9.28
5.46
-1.87
-10.95
-19.08
-23.64
-23.33
-18.59
-10.94
-1.54
9.62
24.08
43.56
67.93
94.45
118.48
135.48
142.92
142.72
137.26
129.20
120.50
111.68
102.28
91.70
79.92
67.46
54.83
41.76
27.36
10.70
-8.77
-30.34
-52.00
-70.54
-82.75
-86.57
-80.88
-67.65
-51.40
-39.02
-35.05
-40.46
-51.83
-62.36
-64.44
-53.03
-27.90
6.23
42.33
71.18
86.09
86.04
75.35
60.67
47.36
37.61
30.54
23.74
14.65
1.64
-15.82
-37.33
-61.63
-87.51
-113.16
-136.46
-155.62
-169.41
-177.02
-177.57
-170.15
-154.19
-130.20
-100.21
-67.90
-37.64
-12.99
4.84
17.40
28.08
40.33
55.80
73.94
92.05
106.42
113.83
112.85
104.41
91.41
77.65
66.62
60.47
59.52
62.48
67.20
71.54
73.79
72.61
66.65
54.63
35.68
10.15
-19.93
-51.08
-79.32
-101.63
-117.07
-127.20
-135.32
-145.09
-158.76
-175.81
-192.46
-202.68
-200.31
-181.77
-148.02
-104.70
-60.55
-24.25
-1.31
7.48
5.88
0.31
-2.56
2.01
15.27
34.04
50.85
55.53
38.52
-5.00
-72.08
-151.82
-228.83
-289.05
-324.89
-337.22
-333.28
-322.01
-309.67
-298.01
-285.53
-270.16
-251.43
-230.53
-208.85
-186.41
-161.17
-129.98
-90.25
-41.41
14.74
74.74
135.13
193.95
251.41
309.16
368.60
428.89
486.13
534.12
566.70
580.43
576.14
558.50
533.85
507.48
482.00
457.48
432.98
408.24
384.41
363.20
345.48
330.29
314.99
296.57
272.95
243.81
210.29
174.15
136.79
98.90
60.46
21.05
-19.76
-62.23
-106.10
-150.42
-193.43
-232.78
-265.90
-290.73
-305.75
-310.13
-303.76
-287.51
-263.49
-235.02
-205.81
-178.49
-153.83
-130.27
-105.44
-78.35
-50.77
-26.80
-10.85
-4.97
-7.22
-12.79
-15.40
-10.04
5.33
29.54
58.98
88.61
113.07
127.93
129.65
117.57
93.89
63.11
30.63
0.94
-23.64
-45.15
-62.93
-79.47
-95.58
-109.93
-119.21
-119.33
-107.33
-83.30
-51.21
-17.93
8.36
22.11
22.33
12.66
-0.58
-11.44
-16.81
-17.02
-14.57
-12.79
-13.57
-17.24
-23.12
-30.34
-38.39
-46.95
-55.59
-63.42
-69.79
-74.43
-77.69
-79.96
-81.03
-79.94
-75.71
-68.58
-60.71
-55.75
-57.32
-66.92
-82.40
-98.07
-106.69
-102.20
-81.97
-47.39
-2.91
44.99
89.22
123.21
141.90
142.62
125.72
94.77
54.50
12.69
-22.32
-44.43
-51.82
-46.85
-34.08
-18.32
-3.34
8.38
15.87
19.11
18.92
16.72
13.98
11.87
10.78
10.39
10.05
9.44
8.47
7.37
6.40
5.67
5.12
4.45
3.16
1.04
-1.57
-3.95
-5.27
-4.91
-2.86
0.46
4.25
7.40
8.68
6.85
1.10
-7.88
-17.30
-23.07
-20.78
-7.98
13.94
39.76
62.23
74.40
73.67
62.00
44.33
25.93
10.17
-2.16
-11.77
-19.44
-25.10
-27.93
-27.44
-24.23
-19.83
-15.96
-14.04
-14.27
-15.82
-17.36
-17.60
-16.07
-13.24
-10.10
-7.68
-6.56
-6.63
-7.31
-7.83
-7.70
-6.82
-5.56
-4.49
-4.03
-4.40
-5.47
-6.71
-7.13
-5.53
-0.99
6.37
15.20
22.89
26.26
22.80
11.68
-5.76
-26.37
-46.28
-62.10
-71.76
-74.78
-72.05
-65.24
-56.45
-47.86
-41.62
-39.39
-41.77
-47.54
-53.49
-55.18
-48.53
-31.86
-6.99
20.98
45.78
62.52
69.51
68.49
63.21
57.46
53.44
51.32
50.02
48.27
45.37
41.37
36.77
32.12
27.91
24.47
21.94
20.19
18.76
16.91
14.05
10.17
6.21
3.68
3.74
6.20
9.14
9.60
5.14
-4.64
-17.45
-29.28
-36.19
-36.13
-29.59
-18.84
-6.41
6.30
19.51
34.01
50.32
67.77
84.13
96.13
100.67
96.04
82.81
63.89
43.47
25.38
11.40
0.51
-10.36
-24.30
-42.22
-61.83
-78.53
-87.64
-86.92
-77.72
-64.35
-51.77
-43.15
-38.55
-35.50
-30.88
-22.89
-12.12
-1.19
6.66
8.90
4.35
-7.10
-25.06
-48.71
-76.05
-103.14
-124.09
-132.52
-124.01
-98.40
-60.55
-19.01
16.92
40.47
49.11
44.41
30.18
10.47
-11.62
-33.08
-50.67
-61.09
-61.98
-52.97
-36.09
-15.10
5.77
23.30
36.08
44.44
49.72
53.32
56.01
57.68
57.67
55.47
51.18
45.77
40.70
37.16
35.61
35.45
35.40
34.12
30.93
26.23
21.37
17.89
16.86
18.36
21.51
24.84
26.88
26.24
21.82
13.16
1.50
-10.58
-18.93
-19.25
-9.24
9.80
32.85
52.99
63.68
62.43
51.18
34.77
18.15
4.30
-6.30
-14.61
-21.50
-26.79
-29.53
-29.06
-25.75
-21.10
-17.00
-15.06
-15.67
-18.08
-20.78
-22.20
-21.59
-19.17
-16.04
-13.52
-12.64
-13.55
-15.65
-17.83
-19.04
-18.85
-17.50
-15.82
-14.74
-14.89
-16.28
-18.40
-20.40
-21.55
-21.66
-21.11
-20.63
-20.95
-22.41
-24.70
-26.97
-28.10
-27.18
-23.83
-18.31
-11.27
-3.45
4.60
12.74
21.17
30.30
40.63
52.52
65.94
80.03
92.80
101.33
102.71
95.02
78.32
54.74
27.95
1.98
-20.00
-36.41
-47.47
-54.56
-59.46
-63.68
-67.88
-71.78
-74.34
-74.27
-70.14
-61.96
-50.68
-37.85
-24.91
-12.89
-2.32
6.64
13.91
19.41
23.04
24.82
24.95
23.75
21.62
19.07
16.64
14.90
14.23
14.67
15.75
16.62
16.38
14.46
10.99
6.95
3.72
2.44
3.72
6.96
10.86
13.97
15.14
13.63
9.14
2.02
-6.32
-13.04
-14.51
-7.70
8.11
30.21
53.00
70.09
77.05
72.64
60.09
44.11
28.48
14.63
1.82
-11.22
-24.68
-37.14
-46.04
-48.85
-44.46
-33.61
-19.26
-6.35
-0.02
-4.30
-19.84
-43.23
-67.88
-86.88
-94.97
-90.66
-75.53
-52.82
-26.11
1.14
25.59
44.45
55.93
60.08
58.97
55.85
53.02
50.90
48.27
43.61
36.29
26.80
16.14
4.85
-7.09
-19.52
-31.12
-39.49
-42.19
-38.22
-28.65
-16.60
-5.68
1.48
4.22
3.84
2.42
2.05
3.71
7.35
11.90
15.83
17.34
14.69
6.98
-4.99
-18.14
-27.60
-28.43
-18.16
1.54
24.98
44.37
53.41
49.99
36.79
19.41
3.59
-7.27
-12.88
-15.09
-16.34
-18.08
-20.65
-23.52
-25.97
-27.40
-27.25
-24.81
-18.89
-8.61
5.64
21.20
33.35
36.99
29.24
11.37
-11.35
-30.97
-41.09
-39.46
-28.42
-13.25
0.40
8.71
10.65
7.77
3.57
2.22
7.35
20.82
41.51
65.15
85.71
97.95
98.95
90.34
76.29
61.40
48.82
39.45
32.67
27.56
23.95
22.27
23.14
26.34
30.79
35.21
38.76
41.85
45.70
50.97
56.37
58.37
52.14
34.05
4.09
-33.63
-72.07
-104.13
-125.42
-135.45
-136.92
-133.86
-129.73
-126.55
-125.27
-126.30
-129.80
-135.48
-142.36
-148.70
-152.66
-153.55
-150.87
-145.48
-139.09
-133.77
-131.17
-131.69
-133.57
-132.78
-124.00
-102.62
-67.42
-21.68
27.35
71.15
103.12
120.89
126.45
124.35
119.16
113.65
108.44
103.04
97.14
91.18
85.99
81.96
78.61
74.85
69.78
63.00
54.99
46.81
39.41
33.07
27.26
20.93
13.26
4.65
-3.64
-9.81
-12.23
-10.22
-4.41
3.73
12.48
20.76
29.06
38.51
50.42
66.00
86.12
111.03
139.82
169.78
192.57
201.10
190.23
159.08
112.25
58.71
8.57
-30.58
-55.87
-68.96
-73.25
-72.16
-67.88
-61.58
-54.29
-47.72
-43.89
-43.97
-47.45
-51.92
-54.38
-52.77
-46.81
-37.93
-28.76
-22.32
-21.15
-26.21
-35.76
-45.25
-48.70
-41.06
-20.34
10.62
44.69
72.96
88.37
87.62
74.06
54.37
35.14
20.19
9.76
1.92
-5.46
-13.06
-19.84
-23.79
-23.67
-19.63
-13.06
-6.29
-1.45
0.28
-1.09
-4.38
-7.63
-9.23
-8.38
-5.07
0.11
6.33
12.38
16.37
15.76
8.03
-8.19
-31.83
-58.63
-82.33
-96.80
-99.11
-91.29
-79.82
-73.07
-77.03
-92.86
-116.11
-138.51
-151.12
-147.63
-126.04
-88.38
-39.36
15.05
68.58
114.95
147.67
162.08
156.58
133.57
99.22
61.90
29.74
8.15
-1.41
-1.08
4.95
12.16
17.14
18.33
15.92
11.32
6.45
2.91
1.55
2.32
4.19
5.69
5.54
3.29
-0.51
-4.52
-7.43
-8.29
-6.92
-4.06
-0.80
1.67
2.20
-0.22
-6.06
-14.46
-22.68
-26.37
-21.47
-6.16
17.64
44.37
66.90
79.47
80.00
69.92
54.34
38.26
24.72
14.44
6.76
1.03
-2.64
-3.63
-1.70
2.28
6.41
8.58
7.46
3.36
-1.89
-5.89
-6.90
-4.72
-0.94
1.80
0.95
-4.85
-15.34
-28.77
-42.56
-53.96
-60.43
-60.65
-54.54
-43.20
-28.68
-13.56
-0.16
10.02
16.50
19.88
21.34
22.25
23.68
26.08
29.12
31.95
33.62
33.55
31.96
29.78
28.19
27.73
28.05
27.52
24.19
16.54
4.04
-12.94
-33.58
-56.74
-80.56
-101.36
-114.88
-116.94
-105.75
-83.55
-56.48
-32.12
-16.04
-9.38
-9.01
-9.91
-8.25
-3.29
2.90
7.48
8.97
8.24
7.79
10.40
17.43
28.15
39.81
48.45
50.85
46.30
37.41
28.93
25.24
27.71
33.75
38.30
36.82
27.96
14.06
-0.72
-13.33
-23.67
-33.63
-44.69
-55.63
-62.17
-59.14
-43.63
-17.09
14.60
43.24
61.50
65.65
56.69
39.64
21.44
8.17
2.77
4.75
10.34
15.13
16.23
13.54
9.22
5.90
5.00
6.10
7.67
8.14
6.79
3.47
-1.73
-8.53
-16.26
-23.48
-28.23
-29.08
-26.36
-22.43
-20.61
-23.22
-29.88
-37.46
-41.44
-38.70
-29.30
-16.30
-3.79
5.40
10.97
14.57
18.26
23.13
28.58
32.80
33.73
30.16
22.41
12.16
2.08
-5.02
-7.12
-3.85
3.25
11.10
16.15
15.71
8.92
-2.84
-16.80
-29.91
-40.22
-47.54
-53.26
-59.30
-66.85
-75.26
-81.97
-83.46
-76.78
-61.40
-39.89
-17.14
1.56
12.64
15.51
12.25
6.11
-0.07
-5.00
-8.84
-12.14
-14.76
-15.66
-13.48
-7.50
1.62
12.32
22.71
31.15
36.72
39.16
38.75
36.28
32.86
28.23
23.10
18.76
16.26
15.97
17.51
20.01
22.77
25.50
28.33
31.75
36.70
43.96
54.15
67.67
84.77
105.43
128.99
153.63
172.28
178.38
168.28
143.26
108.70
71.23
36.09
6.06
-18.34
-37.71
-52.34
-62.27
-67.64
-69.03
-67.55
-64.31
-59.96
-54.78
-49.01
-42.96
-37.52
-34.01
-33.31
-35.53
-39.83
-44.83
-49.44
-53.21
-55.81
-56.73
-55.02
-49.62
-40.26
-27.91
-14.68
-3.02
5.37
10.43
13.42
15.94
18.92
22.13
24.65
25.50
24.25
21.19
17.34
14.33
14.16
18.84
29.39
45.59
65.41
85.19
100.74
108.88
108.79
102.30
92.88
83.48
75.75
69.38
62.23
51.11
32.73
4.54
-34.51
-83.55
-140.16
-199.21
-253.57
-295.66
-319.77
-324.10
-311.68
-289.48
-261.59
-232.71
-204.45
-174.08
-136.30
-87.25
-28.23
33.56
87.85
125.90
143.60
143.42
132.32
118.00
105.59
96.50
89.32
82.12
74.23
66.15
59.47
55.56
54.57
55.25
55.77
54.60
51.38
46.95
42.26
37.76
32.69
25.40
14.91
2.39
-8.73
-13.43
-7.65
9.03
32.66
56.25
72.09
75.75
67.62
51.75
33.34
16.25
1.99
-9.56
-18.82
-25.61
-29.13
-28.98
-25.93
-21.77
-18.63
-18.14
-20.52
-24.61
-28.48
-30.25
-29.10
-25.66
-21.58
-18.66
-18.09
-19.80
-22.57
-24.69
-24.54
-21.23
-14.71
-5.71
4.31
13.45
19.55
20.82
16.70
8.46
-0.96
-8.04
-10.22
-6.95
0.10
8.11
14.60
18.51
20.30
21.09
21.69
22.08
21.72
20.14
17.51
14.46
11.65
9.34
7.21
4.61
1.06
-3.42
-8.37
-12.94
-16.43
-18.45
-19.00
-18.35
-16.83
-14.66
-11.91
-8.49
-4.44
-0.13
3.67
6.01
6.12
3.93
0.28
-3.29
-5.32
-4.90
-2.22
1.58
5.01
6.59
5.24
0.22
-8.39
-19.15
-28.76
-32.61
-26.58
-9.06
17.35
46.19
69.47
81.05
79.26
67.13
50.37
34.29
21.58
12.01
3.94
-3.79
-10.79
-15.66
-17.26
-15.72
-12.44
-9.10
-6.78
-5.40
-4.03
-1.66
2.06
6.45
10.17
11.87
10.71
6.72
0.77
-5.69
-11.01
-13.60
-12.52
-7.86
-1.25
4.35
5.37
-0.90
-14.99
-34.60
-55.31
-71.95
-80.47
-79.34
-69.79
-54.95
-38.37
-22.88
-10.04
-0.28
6.63
11.19
14.15
16.45
19.13
22.98
28.18
34.07
39.39
42.80
43.52
41.73
38.40
34.90
32.34
31.09
30.75
30.55
29.84
28.39
26.48
24.60
23.10
22.02
21.07
19.85
18.16
16.04
13.81
11.94
10.79
10.35
10.23
9.71
7.91
4.12
-1.74
-9.23
-17.32
-24.68
-30.72
-35.22
-38.45
-41.15
-44.35
-48.99
-55.82
-65.26
-77.34
-91.53
-106.37
-119.05
-126.12
-124.54
-113.01
-92.67
-66.92
-40.19
-15.83
2.70
13.90
18.46
18.72
17.55
17.20
18.97
23.32
29.64
36.56
42.64
46.23
45.37
38.44
25.34
8.88
-4.78
-8.48
2.52
28.66
65.09
102.91
132.57
147.54
144.17
125.82
99.31
71.18
45.71
24.75
8.95
-1.14
-5.09
-3.55
1.41
5.86
5.64
-1.73
-15.62
-32.61
-48.10
-58.40
-62.16
-60.22
-55.19
-49.83
-45.79
-43.32
-41.74
-40.31
-38.71
-37.21
-36.16
-36.01
-37.09
-39.30
-42.46
-46.35
-50.86
-56.10
-62.35
-69.84
-78.81
-89.28
-100.99
-113.31
-125.32
-135.94
-144.07
-148.83
-149.68
-146.57
-139.87
-130.21
-118.29
-104.75
-90.13
-74.93
-59.66
-44.87
-31.02
-18.38
-6.86
3.90
14.47
25.46
37.34
50.34
64.40
79.18
94.17
108.83
122.82
136.14
149.05
161.93
175.00
188.18
201.01
212.75
222.61
230.01
234.82
237.58
239.60
242.54
247.45
253.78
258.68
257.38
244.74
217.19
174.06
117.81
52.92
-15.40
-82.22
-143.24
-194.77
-233.90
-259.06
-270.62
-270.96
-263.79
-252.65
-239.73
-225.30
-208.43
-188.13
-164.31
-138.05
-111.03
-84.55
-58.86
-33.20
-6.47
21.65
49.97
75.64
95.13
105.66
106.37
98.72
85.79
71.14
57.66
46.88
39.06
33.66
29.84
26.78
23.86
20.63
17.02
13.10
8.83
4.04
-1.58
-8.19
-15.58
-23.20
-30.21
-35.35
-37.57
-36.14
-30.73
-21.41
-8.63
6.78
23.65
40.73
57.69
74.50
91.15
107.08
121.17
131.99
138.70
141.63
142.50
144.82
151.84
165.10
183.60
204.03
221.93
233.44
236.48
225.25
197.70
155.35
103.09
47.56
-5.24
-51.73
-90.44
-121.07
-143.44
-156.56
-160.15
-155.57
-145.96
-135.16
-126.32
-120.89
-119.00
-120.31
-123.51
-126.74
-127.57
-123.24
-111.15
-90.24
-61.86
-30.11
-0.94
20.84
33.94
40.32
42.29
41.00
33.27
15.07
-15.34
-55.17
-96.88
-131.16
-149.48
-148.91
-132.88
-108.78
-83.61
-61.40
-42.90
-26.94
-12.54
-0.05
8.90
13.12
12.82
9.98
7.33
6.94
9.34
13.46
17.30
18.76
17.15
13.40
9.56
7.81
9.18
13.26
18.37
22.11
21.83
15.63
2.94
-14.63
-33.07
-46.82
-50.54
-41.48
-20.66
5.64
29.36
44.11
47.79
42.96
34.72
27.76
24.14
22.95
21.76
18.90
14.58
10.76
9.72
12.60
18.72
25.96
31.51
33.37
31.35
26.89
22.44
20.38
21.73
26.03
32.02
38.37
44.09
48.35
49.61
45.30
32.65
10.31
-20.07
-53.47
-83.49
-105.20
-117.32
-122.42
-125.07
-127.99
-130.99
-131.56
-126.86
-116.24
-101.94
-87.74
-76.52
-68.41
-60.92
-50.26
-34.88
-15.77
3.83
20.21
31.05
36.36
38.28
39.73
42.74
47.45
52.50
55.68
55.25
50.87
43.91
36.86
32.05
30.91
33.04
36.78
40.05
41.08
38.77
32.73
23.40
12.40
2.79
-1.52
2.85
17.05
38.70
62.21
80.83
89.45
86.16
73.71
56.91
40.16
25.70
13.53
2.69
-7.21
-15.32
-20.08
-20.35
-16.61
-10.84
-5.58
-3.06
-4.02
-7.64
-11.98
-14.85
-14.55
-10.77
-4.54
2.06
6.46
6.33
0.17
-12.15
-29.26
-48.40
-66.17
-79.32
-85.73
-84.41
-75.84
-61.77
-44.66
-27.17
-11.54
0.61
8.45
11.78
10.99
6.88
0.66
-6.19
-12.19
-16.43
-18.93
-20.62
-22.92
-26.94
-33.00
-40.18
-46.44
-49.00
-45.06
-32.53
-10.94
17.97
50.04
79.35
99.98
108.12
103.55
89.68
72.05
55.93
44.20
36.62
30.56
23.06
12.80
0.96
-9.32
-14.68
-13.10
-4.84
7.99
22.31
35.20
44.51
48.94
47.94
41.52
30.45
16.20
1.86
-9.21
-14.67
-14.17
-9.45
-3.44
0.60
1.06
-2.25
-8.29
-15.61
-23.19
-30.96
-39.72
-50.39
-63.10
-76.27
-87.08
-92.85
-92.62
-88.15
-83.09
-81.09
-82.68
-85.98
-86.96
-81.73
-68.89
-50.51
-31.12
-15.21
-4.81
1.38
6.69
14.45
26.03
40.43
55.45
69.29
81.69
93.77
106.75
120.49
133.38
142.86
146.72
144.20
136.35
125.53
114.40
104.76
96.98
90.21
83.06
74.50
64.40
53.63
43.51
35.19
28.92
23.95
18.75
11.61
1.06
-13.73
-32.70
-54.48
-76.03
-92.84
-99.90
-93.83
-75.08
-48.85
-23.95
-9.73
-12.13
-31.23
-61.21
-92.87
-117.25
-128.66
-125.92
-111.58
-89.90
-64.76
-38.44
-11.63
15.71
42.99
68.21
88.12
99.34
99.95
90.66
74.63
56.13
38.65
23.71
10.95
-0.62
-11.19
-19.56
-23.86
-22.87
-16.89
-7.68
2.39
11.31
17.82
21.32
21.42
18.02
11.81
4.99
1.18
4.35
17.07
38.97
66.41
93.41
113.73
122.85
119.22
104.28
81.47
54.98
28.37
4.06
-16.89
-34.46
-49.33
-62.76
-76.66
-93.61
-116.54
-147.68
-186.91
-230.71
-272.39
-303.90
-318.83
-314.81
-294.39
-263.61
-229.16
-195.56
-163.77
-131.62
-95.64
-53.09
-3.33
51.86
108.70
162.33
207.76
240.76
258.77
261.47
250.85
230.68
205.62
180.06
157.01
137.51
120.55
103.82
84.86
62.29
36.80
11.29
-9.64
-20.90
-18.33
-0.23
31.65
71.78
111.75
142.36
156.15
149.56
123.85
84.37
38.56
-6.53
-45.82
-76.87
-99.20
-113.41
-120.56
-122.07
-120.03
-117.73
-119.55
-129.95
-151.74
-184.07
-221.41
-254.35
-272.50
-268.17
-239.40
-190.87
-132.15
-74.29
-26.26
7.41
26.96
36.16
40.12
43.00
46.32
48.57
46.16
35.38
14.49
-14.82
-47.12
-74.79
-90.79
-91.60
-78.89
-59.12
-41.36
-34.08
-42.10
-64.28
-93.53
-119.65
-133.35
-129.59
-108.33
-73.43
-30.75
13.12
51.91
80.43
95.71
98.62
95.39
97.20
115.73
157.71
217.55
276.81
313.44
314.42
281.85
229.43
173.70
126.05
89.95
62.94
41.42
24.28
13.11
9.59
12.82
19.14
23.72
23.02
16.31
5.98
-3.68
-8.52
-6.80
-0.13
7.28
10.21
4.81
-9.33
-28.05
-44.32
-50.39
-41.64
-19.13
10.57
38.09
54.63
56.30
45.18
27.31
9.31
-4.68
-13.97
-20.05
-24.57
-28.04
-29.72
-28.80
-25.37
-20.58
-16.05
-13.26
-12.61
-13.40
-14.37
-14.33
-12.81
-10.07
-6.69
-3.24
-0.40
1.03
-0.02
-4.47
-12.32
-22.23
-31.64
-37.51
-37.50
-31.19
-20.28
-8.09
1.58
5.58
2.11
-9.09
-26.96
-48.92
-71.35
-89.71
-99.29
-96.47
-80.22
-53.24
-21.84
5.99
23.69
28.93
24.57
17.10
13.23
16.42
25.36
35.14
40.16
36.94
25.44
8.60
-9.50
-25.30
-36.42
-41.65
-40.56
-33.09
-19.75
-1.62
19.85
43.16
66.66
88.09
103.85
109.16
99.46
72.88
32.37
-13.86
-54.48
-79.23
-82.94
-67.79
-42.07
-16.23
2.00
10.49
12.49
13.78
18.84
28.30
39.05
46.56
47.80
43.16
36.40
32.30
33.98
41.15
50.32
56.60
56.12
46.88
29.53
6.01
-21.97
-53.42
-87.24
-121.10
-150.88
-171.58
-179.56
-174.23
-158.51
-137.16
-114.10
-90.64
-66.00
-39.12
-10.50
17.26
41.10
59.00
70.50
76.05
75.97
70.32
60.11
47.96
40.00
