1650742058.00
64.000000
-0.00
-0.00
-0.00
-0.00
-0.00
-0.00
-0.00
-0.00
-0.00
-0.00
0.00
0.01
0.01
-0.00
-0.03
-0.05
-0.05
0.00
0.13
0.36
0.66
1.01
1.37
1.72
2.06
2.40
2.79
3.24
3.80
4.42
5.06
5.66
6.20
6.68
7.15
7.68
8.31
9.14
10.09
11.04
11.88
12.56
13.14
13.76
14.65
15.96
17.91
20.32
22.90
25.38
27.58
29.57
31.68
34.32
37.81
42.54
48.15
54.10
59.83
64.97
69.58
74.14
79.34
85.71
93.76
103.00
112.62
121.73
129.77
136.75
143.30
150.75
157.77
166.64
177.95
191.79
206.97
220.57
228.25
225.36
208.53
176.87
132.76
80.05
23.07
-34.94
-92.44
-149.16
-205.23
-260.37
-313.74
-363.88
-409.84
-450.91
-486.50
-515.73
-537.20
-549.18
-549.90
-538.28
-514.08
-478.51
-433.67
-382.19
-326.71
-269.47
-212.20
-156.16
-102.39
-51.74
-5.21
36.35
72.27
102.27
126.50
145.46
159.87
170.43
177.76
182.26
184.21
183.86
181.46
177.37
172.01
165.77
159.01
151.98
144.81
137.58
130.34
123.12
115.99
109.03
102.29
95.83
89.69
83.87
78.39
73.25
68.47
64.05
60.01
56.34
53.05
50.12
47.55
45.35
43.50
42.03
40.91
40.14
39.68
39.46
39.40
39.37
39.20
38.70
37.70
36.02
33.53
30.17
25.94
20.87
15.13
8.92
2.52
-3.80
-9.74
-15.04
-19.48
-22.92
-25.28
-26.53
-26.72
-25.95
-24.32
-21.94
-18.91
-15.32
-11.22
-6.70
-1.79
3.37
8.65
13.87
18.82
23.28
27.06
29.95
31.84
32.72
32.58
31.52
29.75
27.58
25.37
23.49
22.33
22.19
23.31
25.68
29.20
33.75
39.15
45.20
51.75
58.62
65.67
72.85
79.84
86.47
92.69
98.53
104.08
109.44
114.71
119.94
125.17
130.07
134.39
137.92
140.53
142.04
142.18
140.45
136.00
130.07
122.88
114.53
105.13
94.95
84.34
73.68
63.18
52.85
42.49
31.49
19.48
6.46
-7.15
-20.74
-33.78
-46.09
-57.98
-70.10
-83.33
-98.12
-114.25
-130.89
-147.05
-162.21
-176.46
-190.61
-205.70
-222.56
-241.28
-261.60
-283.40
-307.06
-333.09
-361.06
-388.83
-412.29
-426.44
-426.76
-410.72
-378.14
-330.80
-271.69
-204.68
-134.66
-67.87
-11.71
26.87
43.58
38.80
18.06
-9.58
-34.73
-51.10
-57.04
-55.00
-49.33
-43.69
-39.65
-36.74
-33.58
-29.00
-22.70
-15.20
-7.29
0.49
8.10
15.89
24.29
33.75
44.60
56.41
67.73
76.24
79.68
77.25
70.60
63.59
60.61
64.13
72.98
82.14
84.67
75.11
52.71
22.34
-7.28
-27.62
-34.28
-28.78
-16.97
-5.31
2.72
7.89
13.56
22.45
34.15
45.04
50.62
48.40
39.10
26.09
13.32
3.53
-2.11
-3.38
-0.29
6.92
17.12
27.86
35.91
38.47
34.69
26.19
16.30
8.31
4.12
3.47
4.38
4.22
1.12
-5.02
-12.39
-18.05
-19.37
-15.62
-8.52
-1.63
1.51
-0.86
-7.70
-15.82
-21.77
-23.73
-22.15
-18.85
-15.35
-11.53
-5.67
4.15
18.29
34.55
48.79
56.85
56.66
49.30
38.55
29.06
24.17
24.78
29.58
36.51
44.27
53.16
64.53
79.54
97.93
117.69
135.78
149.61
158.24
162.85
166.23
171.34
180.09
192.68
207.83
223.77
239.12
253.56
267.55
281.60
295.33
306.82
312.61
308.81
292.86
264.95
228.58
189.24
152.12
119.83
91.49
63.69
32.35
-5.08
-49.05
-98.22
-150.30
-202.48
-251.32
-292.98
-323.85
-341.86
-347.21
-342.23
-330.17
-313.98
-295.83
-277.40
-260.48
-246.56
-236.18
-228.27
-220.64
-211.58
-201.15
-191.05
-183.18
-177.72
-172.49
-164.43
-151.78
-135.45
-118.19
-102.32
-88.07
-73.72
-57.58
-40.13
-24.49
-14.55
-12.28
-16.14
-21.51
-23.19
-18.10
-6.90
6.95
19.35
28.04
33.64
38.96
47.04
58.87
72.66
84.70
91.30
90.85
84.74
76.41
69.37
65.37
63.73
62.34
59.34
54.35
48.53
43.85
41.83
42.74
45.67
48.89
50.63
49.60
45.24
38.03
29.45
21.70
16.77
15.43
16.71
18.22
17.37
12.98
6.36
0.81
-0.01
5.78
17.00
29.74
39.42
43.11
40.92
35.68
31.06
29.39
30.65
32.91
33.84
32.12
28.03
22.98
18.66
16.33
16.67
19.94
25.97
34.04
42.54
48.92
50.46
45.75
35.93
24.85
17.60
17.82
25.34
35.77
42.46
39.98
27.09
7.55
-11.71
-23.87
-25.02
-14.92
4.10
29.18
57.76
87.47
115.19
136.51
146.36
140.60
117.59
79.52
32.58
-13.92
-49.48
-65.11
-56.12
-23.95
23.64
74.62
116.39
139.67
141.15
123.52
93.37
57.68
20.83
-16.69
-57.62
-106.12
-165.68
-237.52
-319.60
-406.67
-490.86
-563.02
-614.79
-640.76
-639.97
-616.27
-576.75
-529.25
-480.05
-432.52
-387.59
-345.18
-305.29
-268.39
-234.77
-203.75
-173.42
-141.23
-105.03
-63.96
-18.71
28.70
75.92
121.14
163.68
204.15
243.98
284.89
328.33
375.49
427.28
484.15
545.06
606.48
662.07
703.80
724.41
720.17
692.34
646.67
591.02
532.34
474.73
419.33
365.53
312.60
260.56
209.99
161.39
114.95
70.39
27.43
-14.09
-54.32
-93.49
-131.99
-170.05
-207.56
-243.41
-276.35
-305.61
-331.28
-354.08
-374.78
-393.46
-409.23
-420.71
-425.55
-422.07
-409.63
-388.81
-361.34
-329.69
-296.72
-265.18
-237.47
-213.44
-191.72
-170.12
-146.39
-118.96
-87.31
-51.65
-12.44
30.01
78.01
134.50
202.34
283.40
377.74
483.54
597.83
717.47
824.79
902.81
936.69
918.61
851.07
745.79
618.74
484.62
353.85
232.26
124.83
35.03
-34.81
-84.13
-114.86
-131.44
-139.70
-145.16
-151.99
-160.48
-168.78
-174.02
-173.71
-166.67
-153.32
-135.45
-116.27
-100.43
-92.46
-96.31
-113.50
-141.80
-175.37
-206.66
-229.08
-239.40
-238.43
-229.30
-215.71
-200.05
-183.12
-164.96
-146.06
-127.86
-112.28
-100.66
-92.89
-87.65
-83.04
-77.37
-69.97
-61.28
-52.37
-44.42
-38.07
-33.29
-29.40
-25.53
-21.07
-15.96
-10.67
-5.80
-1.76
1.41
3.88
5.70
6.67
6.46
4.88
2.23
-0.72
-2.99
-3.85
-3.10
-1.14
1.42
3.91
5.93
7.29
7.94
7.97
7.55
6.84
5.94
4.72
2.70
-0.67
-5.92
-13.16
-21.84
-30.62
-37.86
-42.31
-43.57
-42.16
-38.88
-34.13
-27.75
-19.65
-10.65
-2.77
1.74
1.88
-1.00
-3.72
-3.28
1.01
6.86
10.54
9.56
4.83
0.27
0.28
6.55
16.50
25.01
27.58
23.41
15.74
9.72
8.97
13.30
19.04
21.51
18.43
11.52
5.57
5.44
13.09
26.32
39.98
48.92
50.50
46.07
39.47
34.95
34.83
38.76
44.64
50.15
54.21
56.75
58.67
60.82
63.73
67.60
72.49
78.00
83.00
87.65
90.47
89.99
85.51
78.07
70.12
64.11
60.87
58.90
55.30
47.19
33.75
15.91
-3.21
-19.57
-30.01
-33.87
-33.03
-30.29
-27.99
-26.91
-28.70
-34.47
-44.77
-59.59
-78.47
-99.91
-120.73
-136.90
-145.46
-149.10
-152.38
-158.92
-169.53
-182.74
-195.90
-206.09
-211.16
-211.36
-212.45
-219.57
-234.00
-252.84
-271.84
-287.65
-298.27
-302.63
-275.68
-206.56
-104.96
4.54
100.59
174.56
227.27
263.14
286.53
298.13
295.35
276.56
243.79
202.68
158.93
115.41
71.42
34.19
6.62
-14.18
-31.87
-48.16
-61.44
-69.06
-69.66
-63.83
-53.56
-42.90
-37.01
-38.18
-45.47
-54.90
-62.05
-64.23
-61.07
-53.77
-45.35
-42.38
-44.97
-52.49
-62.99
-73.49
-80.55
-80.28
-69.01
-45.54
-11.90
27.35
65.44
96.35
116.97
126.29
125.25
117.41
106.23
94.29
83.34
74.72
70.66
74.39
88.73
114.38
148.92
187.08
221.85
245.91
254.18
242.05
214.71
182.22
154.57
136.66
127.96
124.36
120.13
111.64
98.51
82.95
66.55
49.39
29.61
6.12
-20.31
-49.43
-80.57
-113.50
-149.14
-191.27
-238.43
-292.36
-354.58
-411.81
-452.91
-470.12
-460.57
-424.82
-366.11
-290.39
-207.80
-129.46
-64.43
-18.64
7.75
19.14
21.83
20.68
17.99
13.55
8.00
3.56
2.46
6.18
14.67
26.35
38.10
48.48
56.73
64.45
74.27
88.25
106.92
129.56
155.11
182.63
211.03
237.78
259.53
266.79
254.64
222.81
176.07
122.44
69.53
22.91
-18.64
-56.29
-89.41
-114.37
-127.23
-126.40
-114.73
-98.33
-87.06
-88.61
-104.11
-128.81
-154.91
-175.92
-189.21
-195.65
-197.98
-198.79
-199.78
-199.88
-197.71
-192.62
-185.26
-177.28
-170.42
-165.83
-164.04
-164.63
-166.47
-168.06
-168.30
-166.51
-162.24
-154.86
-143.37
-126.34
-101.55
-70.69
-34.54
5.87
49.18
93.94
138.75
182.38
223.62
261.49
294.99
323.55
346.41
362.94
373.17
378.57
382.50
389.61
403.93
426.29
452.88
475.00
481.75
464.12
418.27
346.40
255.30
153.66
49.92
-48.03
-132.98
-198.20
-238.59
-252.34
-241.98
-213.42
-173.36
-126.50
-73.92
-14.45
52.58
124.49
194.37
252.88
292.14
308.74
304.65
285.86
259.53
231.24
203.34
175.44
145.99
114.93
83.82
54.59
28.11
3.49
-21.19
-47.96
-78.27
-113.07
-151.74
-192.98
-235.50
-277.58
-316.00
-345.92
-361.72
-358.94
-335.85
-291.77
-226.72
-142.57
-43.99
61.76
165.66
259.76
339.61
393.07
412.29
398.11
359.43
307.19
249.50
190.28
133.02
82.03
43.37
16.58
-0.03
-9.42
-15.89
-23.00
-34.55
-52.71
-78.54
-109.49
-142.36
-173.81
-201.49
-225.54
-246.88
-268.44
-291.38
-314.48
-334.87
-349.19
-354.46
-349.02
-334.33
-297.10
-232.77
-146.58
-52.09
36.21
109.10
159.73
193.02
212.13
217.78
206.48
174.70
124.10
60.47
-6.41
-64.39
-101.66
-111.70
-93.51
-52.86
2.61
66.54
134.39
201.63
262.11
308.03
330.57
324.05
287.19
224.86
146.67
63.85
-14.42
-81.32
-131.38
-161.02
-168.32
-154.86
-125.63
-88.36
-52.17
-27.37
-21.61
-36.98
-70.31
-115.33
-166.26
-219.56
-273.50
-326.06
-375.35
-415.32
-435.82
-427.46
-388.14
-326.73
-259.91
-205.05
-173.33
-170.91
-196.71
-244.60
-306.87
-377.30
-451.28
-523.49
-586.52
-605.54
-559.99
-456.48
-326.63
-206.13
-115.68
-57.93
-24.57
-4.49
8.17
15.32
15.48
8.37
-2.86
-13.39
-19.32
-18.39
-9.12
7.00
25.72
42.87
57.06
70.20
85.52
105.45
130.98
161.92
197.24
233.68
267.00
293.77
312.13
321.52
322.23
315.71
304.49
291.35
277.68
263.13
246.56
227.04
204.69
180.90
158.43
140.85
131.57
133.07
146.24
170.39
203.01
239.43
273.09
297.24
307.38
303.97
293.43
286.26
292.98
319.50
364.18
418.23
469.05
505.02
519.28
511.12
484.38
444.61
396.75
344.06
288.21
230.16
170.30
109.24
48.58
-8.90
-59.54
-99.14
-123.59
-130.08
-118.31
-91.38
-55.39
-18.16
12.18
28.24
25.64
4.73
-29.21
-67.98
-103.51
-130.16
-145.71
-151.52
-152.26
-152.93
-156.28
-161.92
-167.67
-171.78
-173.93
-175.10
-178.07
-188.25
-211.78
-253.21
-313.41
-389.36
-474.58
-559.98
-634.87
-678.08
-673.61
-621.95
-542.31
-459.98
-392.04
-342.88
-311.08
-287.41
-266.15
-247.29
-233.11
-224.33
-217.88
-208.96
-193.33
-168.86
-135.21
-94.58
-51.34
-9.73
28.31
64.13
100.91
141.47
186.93
236.70
288.47
339.17
386.55
429.44
466.68
494.98
508.47
500.93
469.55
417.51
354.05
291.61
241.45
210.11
198.33
202.59
217.68
238.56
260.17
276.82
282.36
271.78
243.67
201.30
151.76
102.89
59.94
23.36
-11.08
-49.92
-98.23
-156.51
-219.34
-276.89
-318.42
-336.51
-330.03
-304.43
-269.35
-234.30
-205.23
-182.87
-163.82
-142.72
-115.07
-79.13
-36.95
5.80
40.88
59.36
54.42
24.19
-26.77
-88.10
-146.72
-191.02
-214.27
-215.74
-199.40
-171.40
-137.73
-103.19
-71.41
-45.28
-27.05
-17.70
-16.42
-20.24
-24.68
-24.80
-16.43
2.93
33.94
75.46
124.13
174.32
218.45
248.49
258.09
244.98
212.37
168.67
125.54
94.14
80.98
85.20
98.65
109.22
106.71
87.74
57.80
28.75
13.03
17.76
41.57
75.82
109.46
134.35
147.72
151.28
147.53
136.31
114.18
76.84
23.04
-42.34
-108.32
-161.18
-189.69
-189.39
-164.04
-123.13
-77.32
-34.35
2.74
34.07
60.24
80.36
91.94
92.34
80.90
59.89
34.04
9.28
-9.12
-17.75
-15.91
-6.24
5.73
12.99
9.41
-7.51
-35.10
-66.56
-93.72
-110.49
-114.76
-107.91
-92.70
-71.26
-44.45
-12.92
21.07
52.92
76.88
88.98
89.89
85.59
85.03
95.73
119.75
152.23
183.47
203.16
204.45
185.85
150.03
101.31
44.03
-17.14
-75.86
-123.19
-149.29
-147.19
-116.65
-65.61
-7.64
43.39
78.55
96.14
100.41
97.41
91.03
81.31
65.15
38.65
-0.66
-52.65
-113.88
-177.62
-234.27
-273.21
-286.06
-271.21
-236.34
-197.63
-173.63
-176.71
-206.92
-251.32
-289.72
-303.12
-281.61
-227.33
-152.32
-72.89
-3.85
43.99
64.51
55.56
19.75
-35.71
-99.51
-158.80
-202.55
-223.56
-221.08
-200.16
-170.15
-139.86
-115.42
-99.32
-91.40
-89.31
-87.53
-80.57
-64.15
-38.74
-5.86
31.50
69.97
105.68
135.88
162.84
190.23
221.47
254.70
289.02
323.56
357.88
389.95
416.71
438.51
455.21
466.16
466.15
455.23
437.26
418.90
404.66
372.52
308.32
208.26
110.66
30.59
-25.81
-66.81
-95.23
-113.36
-123.08
-122.01
-108.56
-83.53
-55.53
-31.12
-14.58
-6.55
-6.80
-14.30
-24.84
-34.97
-42.71
-51.00
-60.29
-69.57
-76.68
-81.37
-84.84
-86.91
-87.14
-84.69
-80.81
-75.14
-66.87
-55.16
-40.75
-25.51
-10.76
2.48
13.83
22.64
29.65
36.00
42.38
47.98
51.22
51.21
48.38
44.37
40.75
38.55
37.54
36.58
34.37
30.35
24.77
18.23
10.66
1.27
-10.89
-26.02
-42.91
-59.13
-72.24
-80.96
-85.77
-88.75
-92.50
-98.90
-108.45
-119.94
-130.78
-137.73
-137.67
-128.08
-108.22
-79.61
-46.10
-13.14
14.31
33.74
45.86
53.77
61.23
70.15
79.84
89.49
97.99
105.41
113.73
125.61
140.42
156.00
168.20
172.68
166.80
151.73
130.52
107.00
84.14
62.99
43.01
22.38
-0.74
-27.63
-58.76
-93.47
-129.13
-160.74
-181.53
-184.80
-167.24
-131.37
-85.73
-42.15
-11.23
2.05
-0.38
-11.82
-24.55
-33.91
-39.43
-43.95
-50.85
-62.44
-79.71
-103.06
-132.45
-166.26
-200.04
-226.19
-235.83
-222.12
-183.74
-126.40
-61.49
-2.15
41.35
64.48
68.74
59.77
44.34
28.22
15.04
5.68
-0.75
-6.26
-13.76
-27.00
-49.96
-85.30
-132.02
-184.08
-232.40
-266.87
-279.75
-268.69
-237.64
-194.92
-149.85
-108.93
-74.12
-46.11
-24.39
-8.01
5.01
17.91
34.35
56.52
83.10
108.54
121.26
109.61
66.47
-7.37
-104.42
-214.78
-330.51
-447.06
-541.65
-592.75
-585.62
-520.30
-411.83
-282.99
-156.01
-47.24
35.58
92.96
128.53
147.46
154.13
152.06
144.66
135.75
128.77
128.59
138.52
157.70
182.15
206.98
228.80
247.30
264.73
284.33
309.10
335.36
359.67
378.98
390.65
392.03
380.15
352.25
307.17
247.43
179.52
112.56
54.79
10.68
-19.86
-40.44
-55.32
-67.66
-78.75
-88.75
-98.49
-110.53
-128.38
-154.71
-189.06
-226.33
-258.02
-274.80
-270.42
-244.15
-201.79
-153.38
-109.45
-76.96
-56.81
-45.22
-36.46
-26.04
-12.21
4.26
22.11
41.02
59.34
78.10
98.90
122.82
149.88
179.34
210.82
245.32
283.37
323.68
362.60
393.73
410.16
407.38
385.34
348.65
305.07
260.74
218.57
178.91
140.87
104.45
71.33
43.78
20.21
1.04
-14.04
-25.62
-33.98
-39.45
-42.52
-44.04
-45.64
-49.55
-56.78
-68.80
-86.69
-110.72
-141.24
-179.12
-223.10
-272.88
-328.60
-383.02
-430.01
-464.86
-484.26
-485.62
-466.17
-424.49
-363.35
-290.37
-216.19
-152.49
-107.03
-81.30
-71.46
-70.81
-73.55
-76.80
-79.88
-82.45
-84.43
-85.49
-84.18
-79.98
-73.07
-64.72
-56.85
-50.74
-46.48
-43.69
-41.54
-39.17
-36.44
-33.24
-30.18
-28.17
-27.68
-28.27
-28.69
-26.74
-19.44
-8.14
6.99
25.28
45.41
65.78
85.01
102.27
117.56
131.59
145.23
159.62
174.94
190.41
204.87
217.26
227.27
235.70
244.18
254.82
270.50
294.04
327.68
371.98
424.51
479.02
526.23
556.39
562.64
544.03
505.56
456.03
404.36
356.40
313.80
275.12
238.10
201.67
166.72
135.00
107.66
84.33
63.04
41.18
16.46
-12.25
-44.47
-78.63
-112.90
-145.93
-177.46
-208.36
-240.20
-274.76
-313.86
-359.23
-412.19
-472.67
-537.99
-602.01
-655.90
-690.42
-699.10
-680.47
-638.46
-580.33
-513.42
-442.66
-369.57
-293.29
-212.53
-127.06
-38.62
49.33
132.08
204.40
260.50
294.47
301.47
279.78
232.54
168.49
100.47
41.99
3.58
-9.98
0.28
29.30
70.29
116.31
160.37
195.25
214.27
213.48
194.19
164.24
135.81
120.89
126.35
151.24
188.14
227.68
263.46
294.68
325.02
358.68
395.95
431.46
455.84
460.20
440.59
400.21
347.74
293.18
243.44
200.02
160.02
119.09
74.60
26.91
-21.28
-66.84
-107.87
-144.16
-176.77
-206.78
-234.57
-259.52
-280.67
-297.40
-310.41
-322.08
-336.22
-356.85
-385.88
-421.34
-456.58
-482.30
-490.01
-475.65
-441.37
-394.40
-343.87
-296.91
-256.87
-223.02
-192.97
-164.41
-135.90
-106.09
-72.91
-33.51
14.30
69.18
125.59
173.12
200.06
198.25
167.36
116.44
61.48
19.91
3.21
14.40
45.52
81.97
108.18
112.84
91.88
48.42
-9.13
-71.16
-127.33
-170.81
-198.11
-209.08
-206.05
-192.82
-173.38
-145.55
-119.18
-95.67
-76.55
-62.18
-51.65
-42.45
-31.24
-14.44
11.51
47.77
94.05
147.25
203.06
256.44
302.79
338.67
362.08
373.10
372.27
361.33
343.07
321.99
302.75
288.82
281.32
274.15
261.28
246.06
231.01
214.19
194.45
170.36
140.47
104.35
63.62
22.93
-13.17
-41.72
-61.53
-73.98
-82.74
-92.21
-105.88
-124.83
-145.98
-165.35
-179.46
-185.92
-185.84
-183.56
-184.32
-191.63
-205.60
-221.78
-235.89
-245.38
-239.91
-213.21
-165.33
-102.97
-35.79
20.84
66.70
103.60
131.30
147.94
152.22
142.93
121.40
91.75
59.03
28.31
0.53
-26.38
-55.98
-93.28
-142.44
-204.36
-275.14
-346.34
-406.27
-445.60
-459.63
-449.78
-423.61
-391.42
-361.72
-338.54
-321.14
-305.82
-290.22
-274.40
-260.34
-250.49
-245.43
-242.68
-237.54
-225.12
-202.52
-170.60
-133.63
-96.97
-65.17
-40.05
-20.15
-1.84
19.16
46.25
81.03
123.38
171.29
220.35
263.21
290.48
293.46
268.19
218.41
155.52
94.87
49.87
27.12
24.87
35.66
50.93
65.18
76.91
86.98
95.95
102.74
105.27
102.39
95.46
88.34
86.07
92.34
107.97
130.65
156.14
180.49
201.80
221.12
242.13
270.07
309.32
360.98
421.36
482.02
531.83
560.38
561.63
536.02
490.95
437.11
384.16
337.39
296.81
258.65
217.71
169.50
111.35
44.71
-26.48
-96.41
-157.98
-203.67
-227.07
-225.20
-200.82
-163.08
-122.66
-90.37
-73.40
-72.59
-81.97
-90.97
-88.51
-67.23
-25.07
39.19
123.81
224.27
332.33
436.40
523.84
584.52
613.84
592.08
514.13
389.98
242.70
98.00
-26.59
-125.05
-199.28
-254.41
-295.65
-323.53
-337.95
-339.36
-330.89
-317.65
-305.28
-297.94
-298.49
-308.38
-325.22
-346.40
-369.88
-392.81
-413.70
-429.43
-434.50
-423.39
-393.37
-344.95
-286.74
-224.51
-164.72
-112.85
-71.13
-38.64
-13.34
6.61
23.46
39.57
58.53
83.86
118.25
159.66
203.48
242.11
266.97
272.31
257.49
227.44
189.37
149.45
110.59
72.28
31.63
-14.42
-67.54
-127.68
-193.18
-261.59
-329.04
-389.86
-437.11
-465.09
-471.67
-459.29
-433.80
-401.89
-368.86
-337.40
-307.69
-278.65
-249.28
-218.97
-187.12
-152.80
-114.93
-73.03
-27.83
18.71
64.20
106.60
145.24
181.26
217.04
255.03
296.17
338.86
379.00
410.99
429.70
432.22
418.86
393.06
360.62
328.60
303.84
291.54
293.59
307.49
326.45
341.31
343.50
327.92
293.98
244.65
184.39
117.50
48.13
-18.45
-74.93
-113.01
-126.14
-112.92
-78.60
-33.10
13.32
54.01
87.42
115.63
141.45
166.04
188.50
206.73
219.75
228.09
232.85
234.02
229.98
218.38
197.88
169.27
134.53
97.05
60.17
25.90
-5.95
-37.33
-70.65
-107.58
-148.25
-192.55
-237.87
-279.94
-314.49
-339.41
-355.99
-368.64
-383.24
-405.23
-439.03
-483.22
-529.54
-564.90
-575.88
-553.15
-494.00
-402.88
-279.61
-137.82
-1.03
106.44
171.44
196.22
193.56
178.41
161.95
149.68
140.74
133.19
126.75
123.13
123.63
127.22
130.96
131.51
126.88
116.01
100.36
83.45
69.49
60.07
53.79
47.18
36.28
18.33
-7.50
-38.78
-69.05
-89.15
-91.97
-74.56
-38.52
11.09
67.37
123.16
171.18
203.01
212.13
193.80
147.59
78.93
-1.55
-81.02
-148.32
-198.76
-232.98
-245.43
-233.70
-200.18
-151.68
-97.11
-50.57
-14.56
9.28
18.81
12.29
-10.13
-48.63
-102.25
-168.46
-236.38
-291.37
-320.52
-316.59
-280.95
-224.10
-160.91
-104.66
-63.02
-36.94
-22.33
-15.16
-12.91
-14.64
-20.45
-29.63
-39.57
-46.38
-47.18
-40.06
-27.16
-12.45
0.20
8.87
14.27
19.32
27.71
42.03
63.23
88.98
115.65
139.92
160.42
178.29
196.84
220.71
249.54
284.19
324.48
369.28
415.67
458.68
491.76
508.41
504.44
479.61
438.63
388.30
335.98
286.51
241.85
201.88
165.60
132.14
100.68
70.73
40.56
9.62
-22.52
-54.89
-85.50
-112.35
-134.60
-153.29
-170.61
-190.28
-213.61
-242.35
-277.39
-318.62
-364.28
-410.33
-450.33
-476.59
-483.74
-467.26
-428.73
-373.81
-309.59
-241.98
-174.10
-106.71
-32.95
33.59
89.60
129.44
149.81
151.63
139.88
121.44
101.72
82.26
59.15
29.34
-9.84
-56.21
-102.24
-137.64
-154.32
-150.39
-131.72
-110.30
-95.43
-91.43
-94.58
-96.46
-90.00
-74.16
-54.33
-38.82
-33.65
-36.38
-37.94
-26.88
3.65
51.54
106.45
154.56
184.97
192.89
179.49
151.58
120.25
95.80
82.00
74.00
63.03
43.51
14.34
-21.19
-56.70
-85.05
-100.63
-101.19
-87.77
-63.41
-30.36
10.44
58.76
113.62
171.24
224.24
263.38
281.65
273.29
242.04
200.39
163.80
142.63
137.70
142.68
149.44
153.10
152.85
151.67
152.64
156.59
162.42
167.54
170.12
169.63
166.71
161.89
156.36
150.54
143.67
134.15
120.42
101.61
77.30
51.37
26.36
4.54
-12.74
-25.19
-33.20
-37.16
-37.13
-33.06
-25.78
-17.53
-10.72
-7.63
-9.97
-18.34
-31.75
-48.03
-64.37
-79.77
-94.49
-108.79
-122.46
-134.73
-144.53
-150.13
-150.67
-145.96
-140.24
-138.70
-144.95
-160.22
-184.35
-217.33
-258.92
-309.56
-366.49
-427.21
-483.99
-524.94
-538.89
-522.00
-481.56
-431.59
-389.35
-365.95
-370.24
-403.21
-459.61
-531.20
-609.87
-688.83
-759.30
-814.48
-807.25
-713.49
-544.24
-342.35
-155.41
-11.02
75.40
123.79
152.36
173.91
188.36
192.70
187.62
176.80
166.20
160.67
164.43
176.52
197.30
221.60
244.35
262.93
278.12
292.98
310.06
331.53
355.82
384.56
415.61
445.85
472.53
494.65
513.34
530.39
547.97
565.99
588.72
617.31
650.03
682.75
710.91
731.49
742.88
744.80
706.57
612.82
467.12
291.84
114.96
-43.24
-173.74
-276.06
-353.75
-411.93
-450.58
-470.25
-473.75
-466.51
-454.79
-443.01
-433.88
-427.47
-422.98
-415.78
-402.64
-383.15
-359.90
-336.83
-316.73
-300.86
-289.09
-280.58
-271.74
-259.56
-242.54
-220.72
-198.03
-176.99
-159.05
-144.70
-133.93
-125.33
-117.76
-110.83
-105.03
-101.15
-99.10
-98.22
-97.20
-94.52
-88.26
-77.15
-60.94
-40.63
-18.05
5.04
27.13
47.16
64.73
79.96
93.41
106.05
119.45
135.44
155.92
181.62
211.64
243.33
273.62
300.41
323.42
344.02
364.31
386.01
409.56
433.94
457.03
476.09
488.08
489.86
478.48
452.12
410.85
356.98
294.77
229.15
164.26
102.42
43.98
-12.58
-69.72
-129.81
-193.90
-260.36
-324.44
-379.19
-417.59
-435.27
-432.08
-412.33
-383.04
-351.04
-320.81
-293.68
-268.77
-244.55
-220.05
-194.91
-168.54
-139.62
-106.77
-69.99
-31.81
3.39
31.36
50.04
60.48
65.82
69.07
71.56
73.03
73.20
73.40
76.98
87.76
107.75
135.96
169.15
204.06
239.25
275.14
312.23
348.94
380.95
402.91
411.31
406.61
393.01
376.32
360.88
347.79
335.17
319.87
299.60
273.89
243.59
209.61
172.01
130.03
82.98
31.45
-22.14
-73.98
-119.87
-156.55
-182.23
-196.44
-199.79
-193.79
-181.13
-165.61
-151.51
-141.90
-136.70
-131.46
-118.60
-90.71
-44.56
16.93
85.63
151.85
208.17
251.37
281.78
300.60
307.69
301.32
279.92
244.15
197.76
145.93
92.86
40.52
-10.38
-58.14
-98.34
-124.43
-131.40
-119.10
-94.02
-66.94
-48.04
-42.24
-48.13
-60.00
-71.67
-79.99
-85.18
-89.82
-96.45
-105.80
-116.75
-128.15
-139.76
-151.99
-166.45
-181.64
-194.02
-200.33
-200.49
-196.09
-189.45
-183.32
-179.36
-179.26
-183.70
-192.25
-203.56
-215.28
-221.10
-215.81
-197.03
-166.09
-127.57
-86.64
-47.57
-12.92
16.55
41.10
61.24
77.42
90.18
99.61
106.03
109.86
111.39
111.04
108.52
103.28
94.89
83.31
68.13
49.15
26.44
0.31
-25.92
-50.28
-71.39
-88.29
-100.05
-106.98
-110.06
-110.47
-109.20
-107.21
-104.97
-101.96
-100.51
-98.42
-94.87
-90.52
-86.53
-83.74
-83.06
-84.54
-87.14
-89.26
-89.22
-87.06
-84.02
-81.95
-82.88
-90.10
-106.48
-133.07
-168.38
-208.38
-243.78
-266.66
-272.22
-253.98
-215.13
-166.67
-121.75
-89.15
-69.69
-60.56
-54.54
-45.98
-31.60
-10.83
16.99
53.32
99.61
156.80
220.94
284.87
339.92
379.35
399.45
400.78
387.04
363.23
334.35
304.25
275.70
250.36
229.47
213.52
202.74
196.18
190.85
181.60
162.57
130.28
85.82
35.45
-12.09
-48.78
-70.66
-78.82
-77.78
-72.66
-66.58
-60.12
-52.48
-43.41
-33.86
-25.67
-20.40
-18.19
-17.73
-17.06
-14.57
-10.11
-5.55
-3.47
-6.28
-15.10
-29.23
-46.48
-64.07
-79.74
-91.81
-101.26
-109.81
-118.98
-129.25
-139.75
-148.63
-154.22
-155.55
-153.27
-149.30
-145.70
-144.28
-146.16
-151.83
-160.85
-171.52
-180.32
-182.80
-174.95
-154.83
-124.35
-88.95
-55.49
-29.42
-12.75
-2.91
4.22
12.32
23.24
36.60
51.06
65.60
80.21
94.75
109.54
123.71
135.43
142.84
144.74
141.48
134.76
126.91
119.99
115.08
111.96
109.49
106.61
102.54
97.24
91.27
85.16
79.90
75.95
74.22
75.43
79.32
83.64
84.17
76.25
56.79
26.06
-11.91
-50.72
-83.36
-103.92
-108.77
-96.72
-68.99
-29.29
16.28
59.45
91.42
105.15
97.96
72.62
36.45
-1.17
-32.21
-52.04
-60.44
-60.72
-57.88
-56.62
-59.66
-66.87
-75.46
-81.29
-80.39
-70.83
-53.56
-32.79
-13.85
-1.22
3.40
0.99
-5.63
-13.38
-20.27
-25.50
-28.79
-29.83
-28.21
-23.82
-17.19
-9.54
-2.08
4.69
10.87
17.53
26.29
38.70
55.32
74.79
93.36
105.17
105.46
92.13
67.32
37.12
9.08
-10.88
-20.67
-22.07
-18.86
-14.51
-10.62
-7.19
-3.80
-0.73
1.02
0.41
-2.57
-6.58
-9.91
-11.26
-10.73
-10.10
-11.86
-18.21
-30.32
-47.87
-68.63
-89.32
-105.35
-112.10
-106.50
-88.55
-61.87
-32.51
-6.89
11.30
21.58
26.26
28.39
29.71
29.90
27.46
21.50
13.05
5.18
1.52
4.49
13.86
26.36
36.57
38.68
28.99
7.34
-22.58
-54.55
-81.81
-99.15
-103.90
-95.96
-77.16
-50.34
-18.97
13.05
41.88
64.68
80.29
89.16
92.28
89.52
78.99
58.09
26.18
-13.08
-51.23
-77.83
-84.68
-69.80
-38.51
-0.98
32.64
56.44
70.08
76.77
79.48
78.16
69.96
51.74
23.44
-10.37
-42.25
-65.70
-78.56
-83.69
-86.31
-90.06
-94.44
-94.89
-85.41
-62.53
-28.07
10.50
42.36
57.37
49.98
21.62
-19.43
-60.77
-90.38
-100.83
-90.75
-63.61
-24.73
21.43
72.04
121.90
163.17
185.74
180.28
143.10
79.92
5.81
-59.45
-98.41
-101.76
-70.31
-13.51
54.68
119.94
170.60
198.93
201.74
180.32
139.91
88.33
33.53
-18.34
-63.76
-101.80
-133.57
-161.50
-188.80
-218.29
-250.62
-282.98
-309.17
-321.83
-316.01
-292.24
-256.66
-218.84
-187.45
-166.64
-155.32
-148.63
-140.75
-127.01
-104.83
-73.61
-35.23
5.25
39.73
58.87
55.82
29.81
-11.95
-56.43
-89.63
-102.15
-92.34
-65.46
-29.56
9.30
49.13
90.38
131.90
168.21
190.19
189.57
164.40
121.81
76.39
44.21
36.62
56.38
97.88
150.29
201.67
241.62
262.05
257.43
225.35
168.22
94.26
16.66
-49.75
-93.15
-108.06
-96.57
-66.52
-28.35
8.32
36.52
52.55
55.65
47.32
30.84
10.61
-8.53
-22.10
-26.64
-20.27
-2.84
24.19
58.02
94.91
130.64
161.27
184.09
198.73
206.61
209.97
210.41
208.34
203.03
193.55
179.68
162.69
146.16
134.09
128.91
130.04
133.86
135.42
130.57
117.53
97.87
77.18
61.94
56.67
61.40
71.45
79.35
77.69
61.51
30.54
-8.53
-45.14
-68.41
-70.87
-50.45
-10.05
43.60
100.91
134.51
119.04
41.59
-88.41
-243.41
-391.22
-506.36
-576.73
-606.80
-605.35
-580.43
-539.06
-486.47
-426.81
-364.08
-302.98
-246.98
-197.42
-152.65
-107.39
-55.58
7.10
80.29
158.66
234.05
298.82
348.19
381.90
404.07
420.88
438.40
460.34
486.95
515.01
538.57
550.36
543.92
515.83
467.13
403.49
333.39
265.06
203.96
151.87
107.84
69.83
35.97
5.34
-22.27
-47.14
-70.50
-94.85
-123.38
-158.92
-203.61
-257.87
-319.07
-380.26
-430.70
-458.99
-457.14
-423.05
-360.25
-276.51
-181.48
-84.58
6.25
84.51
144.59
182.13
192.97
179.09
151.06
123.93
108.76
106.62
113.01
123.42
134.32
142.83
147.76
146.71
136.55
114.12
77.95
28.71
-29.08
-86.85
-133.39
-157.92
-155.01
-127.70
-87.26
-48.75
-26.71
-27.50
-47.58
-76.61
-103.77
-123.59
-137.37
-150.72
-168.90
-196.96
-234.43
-276.47
-316.81
-351.56
-380.57
-406.13
-431.11
-456.95
-488.00
-526.15
-569.56
-612.97
-649.73
-673.24
-678.26
-663.22
-600.33
-483.72
-332.45
-180.46
-55.37
32.98
89.48
124.10
143.63
151.89
146.74
128.85
102.87
76.36
56.01
46.05
47.63
57.58
72.91
89.96
105.90
121.98
142.43
165.18
185.93
214.00
253.69
298.43
341.84
379.30
409.50
434.01
455.21
475.55
496.12
514.52
528.76
538.31
542.98
542.73
536.24
519.69
488.73
440.43
373.71
292.67
205.20
117.85
34.12
-45.62
-121.92
-192.56
-251.75
-292.98
-313.54
-312.22
-295.40
-275.11
-259.97
-253.27
-252.07
-249.80
-243.00
-227.69
-201.79
-167.30
-128.94
-93.33
-64.65
-44.43
-32.30
-26.73
-23.37
-18.04
-9.16
2.93
15.79
30.60
50.23
76.64
110.02
151.70
202.51
261.58
326.87
393.05
457.34
516.07
563.20
574.72
534.41
442.69
318.28
203.98
111.37
39.98
-14.73
-60.19
-99.64
-131.92
-155.77
-173.54
-191.33
-218.48
-257.80
-306.80
-360.21
-411.59
-453.49
-471.47
-457.06
-411.84
-348.65
-280.87
-217.95
-164.02
-118.69
-78.62
-43.27
-11.94
12.30
23.67
19.22
-1.34
-36.17
-80.88
-124.11
-152.46
-155.40
-130.76
-86.09
-34.27
11.39
41.66
54.50
55.23
52.83
55.59
68.54
92.53
124.58
158.15
184.60
196.02
187.86
157.40
109.08
52.90
2.42
-28.70
-30.32
0.62
59.67
134.39
207.64
263.41
291.58
291.35
270.64
241.51
213.55
191.57
173.01
151.59
122.16
83.30
37.29
-12.03
-61.87
-113.17
-166.48
-223.92
-285.86
-349.72
-410.28
-461.09
-496.12
-511.59
-508.48
-488.15
-455.75
-416.08
-371.35
-320.29
-259.37
-185.48
-90.89
6.60
99.67
178.44
236.43
272.89
292.58
303.11
311.52
321.51
331.33
339.31
341.17
333.71
315.64
287.70
252.05
211.90
171.09
132.84
102.37
82.27
73.15
73.59
80.89
92.10
104.79
116.84
125.50
129.04
124.76
110.71
86.98
56.13
22.88
-7.40
-30.31
-43.62
-46.42
-39.70
-25.55
-6.97
12.19
27.99
37.35
38.87
32.87
20.87
3.79
-18.72
-48.38
-87.28
-135.94
-191.78
-249.29
-299.82
-333.11
-339.91
-315.54
-262.92
-194.29
-128.27
-84.13
-76.26
-107.68
-168.25
-238.28
-296.31
-326.47
-324.09
-293.22
-241.84
-179.72
-114.40
-50.95
6.55
52.66
81.98
89.02
73.70
42.72
4.22
-34.72
-70.66
-104.33
-139.28
-178.04
-222.17
-267.93
-289.89
-267.87
-198.45
-98.82
5.04
85.76
144.82
189.38
225.56
255.47
274.34
274.04
249.64
203.49
146.97
97.88
68.90
64.19
78.84
100.48
117.42
124.01
121.60
115.08
110.07
105.87
98.94
86.11
65.25
36.92
4.28
-28.84
-60.04
-86.34
-108.37
-126.29
-138.14
-141.05
-132.60
-112.19
-81.59
-44.14
-2.97
39.14
81.22
122.98
163.04
198.47
225.90
242.94
249.07
245.82
235.40
220.08
200.93
177.39
147.90
111.64
69.48
24.10
-20.83
-61.78
-93.78
-111.43
-112.04
-97.90
-74.70
-48.04
-21.25
4.43
28.98
52.14
72.81
89.39
100.09
104.41
102.80
96.23
85.67
72.02
55.11
34.12
10.64
-13.88
-37.72
-59.13
-76.51
-88.73
-94.86
-95.27
-91.04
-83.71
-75.27
-67.23
-60.25
-54.05
-51.14
-48.57
-43.96
-35.81
-23.71
-8.56
8.11
24.87
40.95
56.41
72.10
88.42
105.12
120.97
133.40
139.31
135.96
121.78
100.26
75.27
50.42
28.33
9.75
-6.67
-23.62
-44.42
-71.68
-106.50
-147.88
-191.95
-231.84
-258.96
-265.71
-248.11
-207.54
-150.28
-85.47
-22.79
29.91
67.21
85.85
84.15
62.12
21.60
-33.37
-97.03
-162.82
-223.80
-273.36
-305.70
-316.89
-306.39
-277.69
-237.53
-193.57
-151.44
-112.38
-73.77
-30.76
20.33
79.22
140.43
194.62
232.31
248.37
245.56
234.23
227.94
236.60
261.06
293.24
321.27
336.87
339.98
337.86
338.67
345.11
351.80
348.68
327.69
288.31
237.95
187.61
146.20
116.41
95.14
76.55
56.03
32.27
7.05
-16.32
-35.02
-47.73
-55.08
-58.89
-61.06
-62.81
-64.22
-64.55
-62.83
-58.69
-52.72
-46.55
-42.38
-42.34
-47.90
-59.39
-76.08
-96.67
-120.19
-147.07
-179.42
-219.94
-269.73
-326.14
-381.79
-426.04
-448.67
-443.38
-409.80
-352.63
-278.93
-195.82
-110.46
-30.41
34.72
75.40
86.35
70.74
41.29
16.09
11.24
34.13
82.30
146.08
214.68
280.73
340.79
392.75
432.90
455.39
454.32
428.91
383.69
327.89
272.10
224.17
187.16
159.49
136.62
112.00
83.43
49.29
10.62
-29.35
-66.71
-98.38
-123.86
-145.47
-170.54
-200.10
-237.08
-282.10
-333.80
-389.43
-445.08
-495.39
-533.53
-557.46
-557.74
-536.63
-503.35
-471.36
-452.66
-452.04
-464.82
-479.51
-490.17
-482.63
-457.47
-420.27
-376.82
-328.87
-274.09
-209.65
-97.59
1.56
81.58
127.89
132.15
96.72
35.07
-32.41
-85.29
-109.78
-108.87
-81.75
-40.13
4.94
47.34
86.72
126.31
169.57
217.72
264.32
311.42
355.09
392.36
420.65
437.57
440.97
429.77
404.85
365.45
317.63
262.84
201.71
134.71
63.91
-5.78
-66.98
-112.35
-139.47
-148.20
-144.93
-136.78
-128.88
-122.47
-115.00
-102.22
-80.77
-50.73
-14.07
25.10
64.81
105.35
148.16
194.35
243.32
292.51
337.48
373.53
389.28
377.78
339.52
281.34
210.97
133.54
53.00
-24.85
-91.63
-138.89
-160.77
-158.36
-139.64
-115.98
-96.83
-86.34
-83.66
-85.83
-90.69
-96.89
-104.50
-113.63
-123.54
-132.44
-138.36
-140.05
-137.99
-134.69
-130.96
-127.17
-123.06
-117.87
-110.69
-101.02
-89.17
-76.63
-65.66
-57.62
-53.38
-52.90
-55.31
-59.24
-63.32
-66.55
-68.69
-70.20
-70.88
-70.63
-69.09
-65.59
-59.20
-48.98
-33.73
-12.04
12.32
37.21
60.54
80.50
95.74
105.34
108.85
107.03
100.87
91.24
79.45
66.20
51.93
37.11
22.33
8.33
-2.45
-7.78
-6.30
2.49
17.53
36.91
58.60
80.97
102.83
126.00
152.27
182.29
215.10
247.78
276.61
298.55
312.14
317.75
320.86
327.73
343.61
371.20
410.08
457.92
512.08
570.75
611.21
616.71
578.68
501.30
399.34
290.06
186.07
93.42
13.22
-55.59
-110.97
-150.85
-174.20
-182.05
-177.55
-165.06
-149.64
-137.09
-133.90
-143.20
-165.44
-197.32
-232.48
-263.36
-283.70
-290.57
-284.98
-270.81
-251.11
-228.12
-203.10
-177.34
-152.86
-132.06
-116.79
-107.49
-103.13
-101.03
-98.46
-93.25
-84.58
-73.04
-60.22
-48.35
-39.53
-35.05
-34.62
-36.51
-38.19
-37.56
-34.08
-29.11
-25.27
-25.12
-29.62
-37.69
-46.34
-52.09
-52.32
-46.20
-34.59
-19.46
-2.88
13.37
27.73
38.63
44.57
44.57
38.90
29.51
19.62
12.59
10.61
13.55
19.31
24.84
27.59
26.63
22.95
18.82
16.73
18.41
23.86
31.58
38.91
42.72
40.41
30.32
12.28
-12.74
-41.14
-69.21
-94.10
-115.07
-134.14
-155.24
-182.24
-216.35
-254.28
-288.46
-309.53
-309.59
-285.01
-237.86
-175.29
-107.85
-47.32
-4.71
11.58
-2.57
-45.41
-108.45
-177.93
-238.00
-275.93
-286.04
-270.51
-236.71
-192.87
-145.11
-96.02
-46.16
4.65
54.94
102.34
145.94
187.80
232.28
283.07
340.34
400.05
456.74
504.54
539.12
558.51
562.28
549.75
519.27
470.10
405.10
333.52
266.75
213.53
176.50
152.04
132.46
110.22
81.47
38.30
-15.73
-68.80
-109.64
-135.26
-149.81
-158.36
-162.94
-162.69
-156.18
-141.85
-121.03
-97.59
-76.21
-59.55
-47.67
-39.04
-31.75
-24.91
-17.55
-10.55
-6.23
-7.31
-15.03
-28.78
-46.83
-65.33
-82.18
-95.57
-104.89
-110.39
-113.12
-113.73
-112.51
-109.71
-106.00
-102.30
-98.85
-95.68
-92.37
-88.83
-84.81
-80.32
-75.76
-72.25
-70.57
-70.53
-73.05
-75.35
-75.80
-73.49
-68.71
-62.66
-57.55
-55.06
-56.37
-62.26
-72.51
-86.10
-100.06
-109.71
-106.87
-89.65
-60.09
-24.34
9.16
33.16
43.92
42.56
33.46
21.62
9.81
-0.99
-10.84
-19.66
-26.29
-29.54
-28.01
-21.79
-12.48
-2.84
4.79
9.38
11.05
10.81
9.81
8.71
7.34
4.82
-0.14
-8.30
-19.30
-32.06
-45.17
-57.31
-67.71
-76.34
-83.85
-91.21
-99.19
-107.72
-116.43
-124.63
-131.65
-136.96
-140.30
-141.48
-140.11
-138.18
-136.20
-134.17
-131.79
-128.70
-124.61
-119.51
-113.57
-107.05
-100.23
-92.78
-84.25
-74.11
-61.93
-47.55
-31.20
-13.50
4.76
22.79
40.46
57.95
75.66
93.89
112.62
131.29
148.95
164.59
177.53
188.01
196.89
205.46
214.97
226.40
240.34
256.86
275.51
295.15
313.99
329.62
339.58
342.18
337.11
325.52
309.26
290.06
268.73
245.20
219.21
191.19
162.77
136.52
114.97
99.50
89.85
84.51
81.78
80.85
82.08
86.48
94.27
103.72
110.88
110.60
98.56
73.28
37.30
-3.48
-41.67
-70.85
-87.43
-91.27
-85.07
-72.84
-58.47
-44.56
-32.32
-21.88
-12.95
-5.50
0.04
2.93
2.61
-0.94
-7.01
-14.80
-23.70
-33.31
-42.88
-50.98
-55.82
-56.21
-52.19
-44.89
-35.52
-23.49
-5.50
23.34
66.34
121.73
181.33
232.84
264.82
270.97
252.60
217.14
174.27
131.58
92.31
55.72
19.83
-15.99
-50.91
-83.27
-112.02
-137.65
-162.06
-187.44
-215.66
-246.37
-272.63
-284.86
-275.42
-242.90
-192.66
-133.65
-74.36
-21.98
20.18
52.73
78.46
100.55
121.39
140.84
156.43
164.74
160.35
140.37
105.89
60.91
10.00
-44.47
-99.79
-155.40
-211.45
-271.05
-335.29
-402.36
-468.47
-529.39
-581.68
-622.45
-648.98
-639.36
-582.28
-480.80
-353.48
-225.19
-115.22
-31.28
29.31
73.97
108.80
131.05
134.40
114.23
72.05
18.22
-32.48
-66.06
-74.60
-55.66
-21.26
11.72
30.40
31.30
19.94
5.39
-5.57
-11.54
-15.05
-21.39
-32.81
-46.96
-58.71
-62.99
-57.77
-44.55
-27.17
-9.57
5.09
15.12
22.28
29.93
41.08
56.75
75.65
95.20
112.81
126.58
136.72
145.82
157.52
174.93
199.07
228.38
259.15
286.86
307.48
318.62
319.95
312.65
298.89
281.44
263.39
247.68
236.31
229.49
225.71
222.74
219.06
214.86
212.17
213.68
220.92
233.06
246.80
257.73
262.00
257.53
244.11
222.78
195.12
163.14
129.44
97.21
69.67
49.15
36.33
30.20
28.73
29.77
31.39
31.75
28.73
19.89
3.13
-22.26
-54.80
-91.52
-129.22
-166.09
-202.32
-239.34
-278.35
-319.29
-361.24
-403.27
-445.06
-486.32
-525.37
-558.15
-578.48
-580.04
-558.95
-515.47
-453.71
-379.70
-299.16
-216.57
-135.58
-60.16
5.02
55.71
90.26
111.19
124.85
138.56
156.93
179.29
199.99
210.91
205.98
184.17
150.00
111.25
75.05
44.40
17.02
-12.95
-51.07
-98.67
-150.73
-197.33
-227.64
-234.81
-218.91
-186.57
-147.71
-110.85
-79.66
-52.37
-24.02
10.50
53.90
105.82
163.33
221.92
276.02
319.31
345.42
349.18
328.42
284.67
222.89
149.83
71.96
-6.16
-82.49
-157.13
-230.84
-303.53
-373.11
-435.28
-484.57
-516.24
-528.13
-521.66
-501.24
-472.36
-439.45
-404.60
-367.77
-327.92
-284.41
-237.49
-187.79
-135.51
-79.86
-19.35
47.37
120.39
197.86
275.63
347.74
407.60
449.56
470.27
469.49
449.91
416.20
373.73
327.33
280.97
237.63
199.58
168.32
144.27
126.59
113.18
101.28
88.23
72.35
53.38
32.22
10.37
-10.76
-30.09
-46.67
-59.08
-65.22
-62.65
-49.53
-25.77
6.27
42.15
76.69
105.63
126.79
140.16
147.24
149.97
150.16
148.95
146.92
144.36
141.37
137.72
132.71
125.11
113.57
97.83
79.01
59.92
44.61
37.13
39.95
52.64
71.65
91.36
106.95
115.43
116.61
112.73
107.28
103.57
103.69
108.11
115.92
126.44
138.48
150.58
160.91
167.59
169.11
164.84
155.29
136.94
110.62
80.71
54.09
37.11
32.88
40.62
57.09
78.43
101.51
125.85
150.66
174.52
195.29
210.57
218.47
218.01
208.95
191.33
165.42
132.01
91.67
44.91
-7.41
-63.67
-121.42
-177.87
-230.54
-277.38
-317.51
-351.10
-378.89
-401.40
-418.57
-429.80
-434.56
-432.86
-425.41
-413.67
-399.64
-385.54
-373.74
-366.60
-365.69
-370.76
-378.81
-384.13
-379.87
-360.33
-323.11
-269.70
-205.07
-135.65
-67.91
-7.74
39.53
68.85
76.00
58.31
16.26
-45.99
-120.24
-195.19
-258.35
-298.78
-309.97
-291.38
-249.02
-192.52
-132.41
-76.04
-26.15
18.50
60.39
100.49
137.97
170.11
195.02
211.49
219.23
217.72
206.03
183.32
149.77
108.43
63.76
28.95
16.32
32.60
74.91
132.49
192.89
242.78
280.60
306.66
321.23
323.37
312.53
289.46
256.58
217.60
176.09
134.99
94.41
52.77
6.66
-47.36
-110.82
-181.11
-250.76
-309.00
-344.58
-350.84
-327.47
-281.09
-222.51
-162.79
-109.65
-66.00
-30.92
-1.50
24.36
47.64
68.21
85.55
99.18
108.62
113.34
112.65
106.11
93.42
75.06
52.20
26.45
-0.55
-27.42
-53.23
-77.51
-99.95
-120.14
-137.13
-149.39
-155.27
-153.71
-144.81
-130.12
-112.23
-93.96
-77.64
-64.70
-55.80
-51.22
-51.05
-54.95
-61.75
-69.03
-73.44
-71.57
-61.20
-42.39
-17.75
8.16
30.53
45.97
53.74
55.63
54.71
53.36
51.79
47.96
38.96
23.30
2.59
-18.18
-32.25
-33.85
-20.55
5.63
38.87
71.45
96.19
108.50
107.74
97.50
84.77
77.88
83.64
104.57
137.37
173.49
201.76
212.10
198.62
160.92
103.70
35.03
-35.50
-98.31
-145.14
-170.39
-172.40
-154.30
-123.51
-89.48
-60.93
-42.97
-35.89
-36.12
-38.16
-36.63
-27.37
-7.83
22.77
62.87
108.05
151.23
184.17
200.01
195.63
172.48
135.31
89.54
39.12
-13.70
-66.74
-115.68
-153.48
-172.35
-167.61
-141.26
-102.85
-66.76
-46.71
-50.17
-75.42
-112.42
-147.34
-168.21
-168.93
-150.24
-117.58
-77.54
-35.12
6.85
46.63
81.90
108.96
124.01
125.31
115.02
99.31
86.80
85.56
100.57
132.16
175.95
223.99
266.83
295.56
303.84
289.20
253.42
202.03
142.83
84.08
32.97
-5.29
-28.02
-35.11
-28.82
-13.73
4.03
18.08
23.37
18.05
3.98
-14.17
-30.66
-40.85
-42.89
-37.88
-28.94
-19.62
-12.18
-7.19
-4.17
-2.50
-1.71
-1.87
-2.92
-4.18
-4.48
-1.97
4.82
16.18
31.16
48.58
66.97
85.04
101.76
115.75
126.96
135.94
143.05
147.94
150.50
149.03
140.79
123.18
94.00
56.38
17.03
-16.74
-39.84
-49.19
-46.40
-36.39
-24.95
-18.65
-17.50
-17.16
-12.02
2.75
32.26
78.17
138.37
207.51
275.30
335.76
386.29
426.18
434.90
398.88
315.34
195.53
81.29
-13.31
-85.03
-134.55
-169.27
-191.84
-200.65
-193.32
-167.88
-124.09
-67.92
-4.88
57.92
111.80
148.94
166.16
164.94
150.68
129.94
104.68
76.10
43.04
3.02
-46.08
-104.26
-169.57
-239.00
-309.48
-380.15
-448.75
-512.34
-567.25
-602.73
-608.23
-578.19
-515.64
-431.76
-341.87
-258.70
-193.63
-147.63
-119.65
-109.00
-114.41
-132.73
-158.22
-182.63
-196.83
-193.99
-171.54
-133.03
-86.58
-41.09
-2.86
25.98
46.98
63.17
76.97
89.90
102.00
112.88
122.87
133.34
146.21
163.45
186.64
216.57
253.33
295.30
338.59
377.10
404.08
413.74
403.03
372.60
326.38
270.07
209.79
150.34
94.67
44.68
1.07
-37.08
-72.39
-108.31
-147.64
-189.42
-228.64
-257.60
-267.85
-253.99
-216.54
-161.83
-99.45
-39.15
13.41
56.52
86.63
101.17
99.13
81.97
53.83
24.40
-2.83
-25.63
-42.28
-51.24
-50.72
-38.07
-11.31
29.46
81.10
136.56
187.36
224.84
238.72
225.21
189.54
144.30
103.40
75.44
60.75
55.81
54.17
51.20
45.33
36.35
23.40
4.59
-21.89
-56.23
-95.96
-137.27
-176.39
-211.07
-241.97
-272.18
-304.96
-340.70
-375.07
-399.30
-403.61
-381.21
-331.44
-260.69
-180.55
-104.19
-42.23
-0.18
22.49
31.31
35.05
43.24
63.34
97.97
143.37
189.82
224.47
235.52
216.38
168.12
99.31
23.20
-46.50
-99.80
-133.00
-148.95
-155.36
-161.85
-176.77
-204.66
-244.94
-292.17
-337.65
-372.12
-388.55
-383.99
-359.84
-320.91
-273.43
-223.18
-174.52
-130.51
-93.69
-66.40
-50.22
-44.75
-46.73
-50.53
-50.12
-41.69
-25.49
-5.78
11.09
19.55
17.30
5.87
-10.41
-26.60
-39.12
-46.63
-49.50
-48.33
-42.83
-31.12
-10.09
23.57
72.20
136.62
216.27
309.39
412.87
521.67
628.19
722.76
795.46
838.80
850.06
831.93
791.13
735.76
672.78
606.85
540.52
475.24
411.89
350.53
290.26
229.33
166.27
101.02
35.25
-28.01
-85.17
-132.29
-165.39
-180.97
-177.49
-157.08
-126.40
-95.52
-74.47
-69.54
-80.94
-103.31
-128.86
-150.87
-165.58
-171.86
-169.35
-156.80
-132.54
-96.12
-50.24
-1.45
41.69
71.72
85.25
83.98
73.95
62.30
54.64
53.20
55.88
58.41
57.03
50.36
39.91
29.39
21.55
17.40
15.95
13.31
5.22
-10.46
-32.88
-58.61
-82.59
-102.55
-118.68
-132.75
-149.19
-171.91
-201.23
-234.06
-264.99
-287.22
-298.80
-301.29
-298.30
-297.26
-306.17
-329.86
-370.12
-424.89
-486.94
-549.77
-606.00
-629.18
-599.60
-513.22
-384.90
-242.98
-127.24
-43.75
14.05
57.08
95.75
139.96
184.83
227.59
262.83
285.83
296.15
293.65
281.54
265.90
250.80
237.43
225.49
212.51
196.14
176.22
150.57
116.82
73.32
18.64
-46.11
-111.06
-161.88
-185.00
-174.21
-136.14
-84.67
-33.37
5.93
32.88
51.64
66.08
78.90
91.83
104.86
117.82
129.40
137.14
138.40
130.70
111.76
80.71
38.64
-11.58
-65.13
-116.33
-160.00
-192.51
-209.16
-208.41
-191.80
-163.52
-128.56
-90.64
-51.56
-12.22
26.52
62.49
91.87
110.49
116.03
107.65
87.18
59.17
30.40
8.12
-2.58
-1.00
8.88
18.94
20.85
10.24
-11.88
-39.97
-67.48
-90.09
-107.15
-120.40
-131.63
-141.44
-147.28
-146.10
-135.67
-116.53
-91.69
-65.87
-43.26
-26.12
-13.68
-3.21
8.17
23.29
42.85
65.41
88.45
109.96
127.14
140.52
152.59
166.21
185.26
212.41
248.27
290.73
334.75
373.25
399.03
406.48
384.64
331.58
255.08
170.41
93.47
33.81
-7.20
-33.36
-49.68
-59.58
-62.91
-59.36
-50.02
-37.87
-26.74
-19.20
-15.47
-14.07
-12.69
-8.12
1.06
14.05
28.73
40.93
47.01
45.01
34.66
17.06
-5.00
-29.20
-54.06
-78.20
-101.49
-124.19
-146.15
-166.45
-186.56
-203.78
-215.13
-218.53
-213.75
-202.19
-185.66
-165.79
-143.95
-121.85
-101.73
-86.30
-76.91
-72.82
-69.94
-61.93
-43.69
-14.88
20.80
53.11
70.60
66.41
40.02
-2.88
-54.12
-106.68
-156.37
-200.81
-237.23
-261.56
-263.63
-239.82
-196.56
-148.80
-111.95
-94.45
-95.38
-107.57
-122.37
-133.55
-141.07
-146.01
-149.80
-153.03
-155.65
-157.38
-158.01
-156.90
-152.51
-143.05
-126.28
-100.48
-65.33
-22.79
23.03
67.33
106.69
140.50
170.37
199.28
229.59
261.73
294.01
323.53
347.36
363.28
370.06
367.42
356.81
342.08
329.17
324.22
330.51
345.79
362.15
369.00
357.42
324.01
272.10
209.28
143.48
79.69
18.90
-40.64
-101.15
-163.46
-226.24
-285.89
-337.21
-374.44
-392.49
-388.53
-363.15
-320.43
-266.58
-207.94
-149.50
-94.67
-46.06
-6.23
22.39
38.64
43.68
41.14
35.72
31.16
28.60
26.50
22.15
13.19
-0.87
-18.66
-37.60
-54.91
-68.24
-76.08
-77.87
-74.12
-66.39
-56.81
-47.46
-39.56
-33.10
-27.03
-20.18
-12.11
-3.56
3.83
8.42
9.53
7.83
5.12
3.44
4.12
7.10
11.02
13.86
14.24
12.40
10.45
11.67
18.93
33.14
52.54
73.42
91.60
104.25
110.69
112.04
109.99
105.57
98.81
89.14
76.40
61.46
46.11
32.32
21.43
13.71
8.59
5.28
3.27
2.56
3.36
5.78
9.52
13.93
18.34
22.47
26.57
31.27
37.06
43.80
50.49
55.72
58.33
58.12
56.04
53.64
52.13
51.61
50.76
47.54
40.20
28.23
12.67
-4.33
-20.33
-33.49
-42.89
-48.53
-50.98
-50.98
-49.26
-46.36
-42.64
-38.41
-34.01
-29.99
-27.06
-25.83
-26.44
-28.28
-30.07
-30.38
-28.36
-24.29
-19.55
-15.84
-14.22
-14.37
-14.77
-13.53
-9.62
-3.64
2.34
5.72
4.71
-0.77
-9.01
-17.37
-23.48
-26.10
-25.46
-22.66
-18.94
-15.08
-11.22
-7.18
-2.83
1.63
5.60
8.27
9.00
7.56
4.11
-0.76
-6.28
-11.72
-16.65
-20.99
-24.91
-28.42
-31.25
-32.79
-32.42
-30.00
-26.07
-21.88
-18.83
-18.00
-19.67
-23.42
-28.28
-33.16
-37.09
-39.39
-39.72
-38.04
-34.67
-30.21
-25.36
-20.81
-17.15
-14.87
-14.44
-16.19
-20.15
-25.81
-32.07
-37.54
-41.14
-42.71
-43.22
-44.44
-47.71
-52.88
-57.74
-58.46
-50.71
-31.16
1.30
45.14
96.25
148.59
194.74
227.04
239.30
229.07
199.62
160.30
124.46
104.95
109.26
136.26
176.59
216.41
242.81
248.13
231.33
196.57
150.53
99.99
50.72
7.24
-27.42
-52.93
-72.54
-92.73
-120.77
-160.90
-210.94
-261.90
-301.60
-320.54
-316.90
-297.50
-274.06
-256.96
-250.08
-249.69
-247.74
-237.03
-214.97
-184.11
-149.41
-114.64
-80.50
-45.38
-7.58
32.43
71.44
104.50
127.08
137.36
137.36
132.77
130.90
137.03
151.13
166.84
174.11
164.64
136.78
97.07
57.01
27.03
11.47
7.32
6.99
2.80
-9.63
-30.49
-56.94
-84.49
-107.97
-122.27
-123.39
-110.03
-84.47
-52.17
-19.72
7.61
27.25
39.16
44.46
44.56
40.85
35.15
29.68
26.34
25.96
27.97
31.10
34.42
38.01
42.80
49.96
60.50
75.34
95.38
121.35
153.03
188.42
223.65
253.71
274.10
282.51
280.00
271.10
262.39
260.02
267.27
282.82
301.06
314.27
316.01
303.98
281.01
253.41
227.75
207.75
192.87
179.24
162.06
138.18
107.31
71.68
34.73
-0.45
-31.73
-57.98
-79.05
-95.70
-109.57
-123.16
-138.77
-157.09
-176.11
-190.87
-194.68
-181.49
-148.49
-98.13
-38.68
17.11
55.33
65.26
43.16
-6.12
-70.72
-135.81
-188.41
-220.95
-231.98
-224.67
-204.12
-175.40
-142.88
-110.74
-82.83
-62.21
-50.05
-45.18
-44.88
-46.62
-49.28
-53.42
-60.22
-69.80
-80.03
-86.26
-82.29
-62.88
-26.26
24.09
79.82
129.72
162.93
172.07
155.56
117.75
67.78
17.30
-22.14
-41.36
-35.19
-2.82
52.31
123.15
199.91
271.04
324.80
351.30
345.41
309.50
254.74
198.66
159.41
148.47
165.55
198.44
228.33
237.82
218.13
171.48
108.42
41.72
-19.24
-71.25
-116.23
-158.32
-200.68
-244.43
-289.12
-333.41
-375.16
-410.85
-435.46
-443.21
-429.51
-393.44
-339.31
-276.18
-215.27
-166.19
-133.73
-116.87
-110.30
-107.52
-103.89
-97.97
-90.73
-83.60
-76.59
-67.73
-54.07
-33.68
-7.11
22.49
50.63
73.44
89.08
98.05
102.36
104.38
105.59
106.49
107.04
107.44
108.46
110.74
114.02
116.48
115.11
106.89
90.19
65.38
34.39
-0.26
-36.31
-71.74
-104.44
-131.90
-151.86
-163.37
-167.61
-167.86
-168.13
-171.31
-177.77
-185.09
-189.05
-185.54
-172.10
-148.70
-117.43
-81.16
-42.54
-3.27
35.61
73.11
107.38
135.52
154.25
161.19
156.04
140.50
117.57
90.12
60.38
29.45
-2.22
-34.12
-65.28
-94.24
-120.18
-143.23
-164.04
-182.25
-195.84
-201.19
-194.65
-174.73
-143.02
-104.55
-65.81
-32.04
-4.43
19.98
45.91
77.00
110.92
142.17
163.15
168.06
154.12
124.85
89.72
60.51
45.76
46.59
58.34
74.45
90.35
104.24
116.64
128.61
139.33
146.00
145.19
135.32
117.11
93.35
66.79
39.65
12.67
-15.14
-44.01
-73.95
-103.60
-130.25
-145.60
-142.86
-118.70
-74.81
-17.28
45.92
107.66
163.64
212.36
254.43
290.37
320.89
346.07
364.86
375.75
377.68
370.81
356.59
337.18
313.93
286.88
254.19
215.17
169.18
116.52
58.99
-0.06
-56.68
-107.72
-151.60
-188.53
-220.32
-249.93
-280.66
-315.75
-357.32
-404.96
-454.48
-497.79
-524.91
-528.16
-506.74
-468.33
-427.07
-398.28
-392.73
-413.01
-453.51
-503.41
-550.52
-584.62
-598.77
-589.79
-558.14
-507.60
-444.50
-376.40
-310.35
-250.94
-200.24
-157.92
-122.55
-92.26
-65.32
-40.50
-17.25
3.82
21.34
33.55
39.66
40.01
36.39
31.42
27.60
26.55
28.15
31.30
34.01
35.21
34.44
31.76
27.35
21.20
13.05
2.08
-11.02
-24.99
-35.99
-40.11
-34.45
-18.27
6.64
36.92
67.77
97.83
127.50
161.71
205.35
261.14
328.01
400.56
471.27
531.14
577.52
611.46
640.70
673.34
715.21
768.20
830.09
897.37
964.15
1030.12
1064.14
1038.40
934.71
756.89
531.89
296.17
99.44
-54.71
-174.00
-267.98
-338.69
-383.68
-400.91
-387.87
-347.45
-288.86
-231.11
-189.25
-173.65
-183.29
-208.77
-237.01
-257.99
-269.15
-273.95
-280.18
-290.11
-302.43
-312.23
-315.11
-309.20
-295.91
-279.69
-265.35
-257.42
-255.68
-256.62
-254.85
-245.83
-227.16
-198.75
-162.53
-121.10
-77.41
-33.43
9.16
48.96
84.49
114.18
136.87
152.09
160.47
163.21
162.27
159.48
155.74
151.11
145.23
137.95
129.65
121.24
113.67
107.88
104.76
104.85
107.75
111.42
111.90
104.27
84.66
52.43
11.29
-31.53
-68.07
-92.84
-104.62
-106.17
-102.03
-96.03
-89.96
-83.77
-76.92
-69.58
-62.90
-58.27
-56.26
-56.16
-56.37
-55.18
-51.61
-45.94
-39.46
-33.82
-30.20
-28.81
-28.84
-28.88
-27.63
-24.55
-20.03
-15.20
-11.40
-9.46
-9.31
-10.03
-10.32
-9.17
-6.33
-2.51
1.01
3.00
2.93
1.28
-0.59
-1.15
0.55
4.40
9.25
13.44
15.64
15.55
14.27
13.84
16.15
21.90
30.33
39.19
45.72
47.56
43.29
32.85
17.20
-1.62
-20.29
-34.24
-39.12
-32.86
-17.63
-0.16
10.93
8.90
-7.68
-33.92
-60.73
-79.32
-84.92
-77.31
-61.66
-43.34
-25.27
-7.53
11.07
30.66
49.30
63.87
71.38
70.32
61.72
47.87
31.00
12.54
-6.20
-23.46
-36.25
-40.97
-35.53
-20.12
2.37
27.52
51.07
69.85
81.24
82.59
71.20
45.39
6.89
-38.34
-81.52
-114.03
-130.63
-131.66
-122.81
-110.33
-100.20
-95.85
-97.68
-103.08
-107.28
-104.65
-90.57
-63.10
-24.29
19.41
59.32
86.64
94.96
82.10
50.98
9.37
-31.66
-60.65
-69.48
-55.91
-24.26
16.38
55.83
86.52
105.43
113.81
114.73
110.81
103.40
93.14
81.09
69.38
60.71
57.56
60.87
69.86
82.45
95.91
107.42
114.79
116.76
112.97
103.80
90.24
73.59
54.97
35.49
15.93
-3.01
-20.78
-36.65
-49.08
-55.60
-53.06
-39.13
-14.03
18.39
51.18
76.33
87.60
82.67
63.46
34.39
0.61
-33.54
-65.01
-91.36
-110.25
-120.04
-120.77
-115.46
-109.36
-108.35
-115.12
-127.28
-138.29
-140.91
-130.62
-106.23
-69.46
-22.39
31.47
88.10
142.28
186.97
214.00
216.49
192.79
147.12
90.21
33.28
-13.19
-41.51
-48.79
-38.66
-20.54
-5.16
-2.27
-15.74
-47.17
-94.41
-152.03
-213.35
-272.78
-326.87
-372.12
-406.77
-405.68
-355.20
-262.58
-152.65
-50.66
30.26
82.47
117.21
143.06
164.67
178.87
179.36
163.21
131.92
90.93
46.81
6.52
-26.28
-49.52
-57.46
-47.88
-23.35
9.76
45.43
80.37
114.33
144.98
172.92
194.21
202.89
195.46
172.60
137.96
94.95
47.10
-1.59
-45.36
-80.64
-107.88
-130.02
-149.78
-168.07
-183.52
-192.13
-188.72
-168.58
-131.09
-81.22
-28.01
18.53
51.11
67.65
71.80
70.25
69.20
71.08
74.17
75.00
71.20
63.03
53.22
45.38
42.15
43.95
49.07
54.64
58.39
58.94
55.39
46.41
30.49
6.79
-23.90
-58.05
-90.29
-115.01
-128.38
-130.03
-122.89
-111.37
-98.56
-84.68
-67.42
-43.87
-13.05
22.39
56.56
82.63
94.62
91.50
77.00
57.09
36.97
19.15
3.36
-11.85
-27.18
-41.71
-53.30
-60.39
-63.15
-63.44
-63.90
-66.86
-73.11
-81.46
-89.32
-94.11
-93.36
-86.31
-73.77
-57.58
-39.76
-21.95
-4.88
11.15
25.98
39.16
49.67
56.20
57.65
53.58
44.40
31.63
17.03
2.25
-11.53
-23.78
-34.53
-44.00
-52.34
-59.51
-64.64
-67.14
-66.69
-63.26
-57.24
-49.19
-39.64
-28.91
-17.25
-3.88
11.52
28.94
48.04
68.50
90.26
113.99
141.44
168.90
195.47
220.82
244.98
268.05
289.89
309.68
325.68
335.40
336.36
328.08
311.60
289.32
264.09
238.16
212.54
187.10
161.38
135.14
109.30
84.42
60.26
35.53
8.42
-22.29
-56.57
-92.91
-129.04
-162.08
-189.79
-210.74
-224.22
-230.16
-229.25
-222.84
-212.81
-201.16
-189.22
-177.67
-166.59
-155.88
-145.55
-135.92
-127.43
-120.27
-114.19
-108.36
-101.68
-93.22
-82.63
-70.49
-58.34
-48.26
-42.10
-40.64
-43.07
-47.08
-49.80
-48.85
-43.29
-33.90
-22.72
-12.20
-4.27
0.15
1.30
0.08
-2.39
-5.27
-8.30
-11.64
-15.57
-20.14
-24.99
-29.46
-32.78
-34.26
-33.43
-30.05
-23.99
-15.38
-4.62
7.40
19.32
29.40
35.83
37.07
32.21
21.42
5.97
-11.89
-29.50
-44.51
-55.56
-62.39
-65.58
-65.94
-63.89
-59.49
-52.66
-43.60
-33.08
-22.36
-12.84
-5.78
-2.10
-2.31
-6.51
-14.20
-24.13
-34.33
-42.48
-46.46
-45.02
-38.14
-26.93
-13.14
1.38
15.14
27.01
36.10
41.61
42.99
40.27
34.43
27.51
22.19
20.92
25.09
34.49
47.40
61.29
73.77
83.24
89.19
91.86
91.78
89.24
84.29
76.92
67.35
56.30
44.92
34.51
26.10
20.08
16.16
13.48
11.03
7.92
3.68
-1.66
-7.71
-13.76
-19.02
-22.75
-24.38
-23.62
-20.47
-15.27
-8.57
-1.09
6.39
13.05
18.15
21.06
21.43
19.37
15.44
10.59
5.80
1.84
-1.03
-3.07
-4.86
-6.96
-9.54
-12.30
-14.57
-15.70
-15.40
-13.97
-12.20
-11.03
-11.20
-12.83
-15.37
-17.88
-19.39
-19.26
-17.42
-14.25
-10.33
-6.19
-2.15
1.57
4.70
6.85
7.59
6.69
4.41
1.45
-1.27
-3.07
-3.75
-3.67
-3.47
-3.64
-4.36
-5.40
-6.42
-7.15
-7.58
-7.82
-8.06
-8.35
-8.62
-8.71
-8.44
-7.58
-5.97
-3.49
-0.16
3.83
8.22
12.67
16.96
20.97
24.64
27.86
30.45
32.21
33.16
33.56
33.83
34.31
35.05
35.68
35.56
34.19
31.46
27.82
24.05
20.96
18.93
17.71
16.45
13.93
9.04
1.19
-9.41
-21.73
-34.18
-45.00
-52.63
-56.07
-54.93
-49.52
-40.67
-29.59
-17.71
-6.35
3.41
10.98
16.22
19.34
20.66
20.48
18.97
16.28
12.61
8.33
3.93
0.01
-2.90
-4.38
-4.17
-2.30
0.99
5.16
9.45
13.01
15.04
15.06
12.98
9.17
4.30
-0.88
-5.69
-9.68
-12.71
-14.91
-16.60
-18.16
-19.84
-21.65
-23.29
-24.30
-24.20
-22.84
-20.46
-17.59
-14.84
-12.56
-10.77
-9.27
-7.79
-6.20
-4.54
-3.00
-1.75
-0.93
-0.55
-0.45
-0.14
1.38
5.53
13.91
27.52
46.15
68.05
90.29
109.55
123.16
129.87
129.91
124.59
115.59
104.44
92.24
79.83
67.90
57.11
47.90
40.25
33.65
27.25
20.17
11.95
2.74
-6.70
-15.32
-22.14
-26.68
-29.03
-29.75
-29.62
-29.34
-29.38
-29.94
-30.91
-32.00
-32.80
-32.80
-31.61
-29.10
-25.55
-21.69
-18.51
-16.98
-17.56
-20.06
-23.62
-27.09
-29.45
-30.09
-28.86
-25.87
-21.33
-15.51
-8.93
-2.50
2.49
4.80
3.73
-0.61
-7.23
-14.77
-21.94
-27.93
-32.33
-34.93
-35.49
-33.67
-29.33
-22.68
-14.43
-5.56
2.94
10.37
16.36
20.75
23.46
24.45
23.74
21.56
18.40
14.95
11.97
10.04
9.46
10.21
11.95
14.24
16.61
18.70
20.33
21.47
22.18
22.49
22.50
22.26
21.96
21.86
22.26
23.42
25.39
27.91
30.58
32.92
34.60
35.48
35.69
35.49
35.26
35.42
36.33
38.28
41.42
45.69
50.92
56.84
63.21
69.83
76.46
82.71
88.03
91.93
94.13
94.82
94.49
93.43
91.27
86.76
77.96
63.06
41.20
12.96
-19.68
-53.89
-86.76
-115.74
-139.01
-155.58
-165.43
-169.68
-170.60
-171.20
-174.40
-181.86
-193.09
-205.41
-214.77
-217.46
-211.56
-197.83
-179.08
-158.78
-139.42
-121.55
-104.19
-86.11
-67.41
-50.35
-38.73
-36.20
-44.03
-59.78
-77.42
-89.11
-87.88
-70.20
-37.17
5.92
51.43
91.73
121.05
136.66
139.15
131.76
119.36
107.13
99.35
98.28
103.71
113.21
123.11
129.78
130.48
123.90
110.28
91.27
69.64
48.72
31.60
20.30
15.46
15.98
19.63
23.93
27.14
28.48
27.90
25.48
21.06
15.24
8.69
2.47
-2.10
-3.65
-1.48
3.82
10.01
13.59
12.97
7.81
-0.20
-7.41
-8.51
2.30
29.21
72.48
127.07
185.94
238.55
274.13
285.38
272.15
242.78
211.82
195.05
203.90
245.35
316.10
404.07
492.30
564.87
611.83
630.98
626.46
582.48
494.72
370.46
228.81
92.93
-19.33
-99.58
-147.99
-170.50
-176.15
-169.35
-155.72
-139.24
-122.94
-109.10
-99.16
-94.15
-95.24
-103.94
-118.93
-136.63
-153.51
-166.81
-174.63
-175.68
-169.58
-157.17
-140.65
-121.27
-100.92
-81.88
-66.48
-56.36
-52.03
-52.96
-58.18
-66.87
-77.78
-90.30
-104.40
-120.21
-137.47
-155.23
-172.17
-187.24
-200.14
-211.13
-221.06
-230.94
-241.46
-253.13
-266.52
-282.51
-301.61
-322.98
-343.72
-359.77
-367.97
-368.16
-363.72
-359.68
-359.44
-362.10
-362.23
-352.37
-326.80
-284.38
-228.66
-165.74
-101.46
-39.80
17.20
68.41
112.89
149.89
179.50
202.19
218.01
225.40
221.06
201.28
163.54
108.30
39.52
-35.72
-108.50
-169.49
-210.52
-226.70
-218.70
-194.32
-167.61
-154.59
-167.00
-206.92
-265.18
-325.01
-369.16
-386.71
-376.43
-345.22
-303.17
-258.65
-215.82
-175.09
-135.55
-97.28
-61.72
-30.70
-4.90
16.96
37.56
60.02
86.52
117.72
152.76
190.11
228.41
266.87
305.05
341.93
375.15
400.96
415.20
415.04
400.50
374.78
343.11
310.70
280.65
253.35
227.24
200.54
172.73
145.08
119.90
99.39
84.75
75.98
72.48
73.57
78.64
86.73
96.15
104.47
109.05
107.95
100.71
88.56
74.01
60.11
49.54
44.07
44.20
49.21
57.42
66.69
74.98
80.85
83.77
84.05
82.52
80.10
77.40
74.64
71.59
67.88
63.22
57.51
50.94
43.83
36.48
29.10
21.77
14.55
7.51
0.74
-5.74
-12.03
-18.51
-25.71
-34.20
-44.24
-55.62
-67.67
-79.42
-89.96
-98.68
-105.42
-110.30
-113.58
-115.39
-115.78
-114.74
-112.32
-108.72
-104.13
-98.70
-92.44
-85.30
-77.37
-68.99
-60.76
-53.34
-47.33
-42.98
-40.22
-38.67
-37.85
-37.30
-36.73
-35.98
-34.92
-33.47
-31.58
-29.22
-26.59
-24.00
-21.86
-20.52
-20.07
-20.28
-20.67
-20.70
-19.99
-18.57
-16.82
-15.32
-14.63
-14.94
-16.01
-17.22
-17.82
-17.26
-15.43
-12.72
-10.00
-8.28
-8.55
-11.35
-16.50
-22.65
-27.25
-27.13
-19.57
-3.62
19.11
44.65
67.98
84.91
93.47
94.27
89.62
82.04
73.14
63.43
52.96
42.19
32.36
25.27
22.60
25.12
32.34
42.66
54.05
64.84
74.03
81.37
87.18
92.14
96.92
101.76
106.21
109.32
110.11
107.85
102.27
93.91
84.06
74.49
66.80
61.96
60.05
60.22
60.43
57.52
48.15
29.88
2.11
-33.84
-75.08
-118.09
-159.06
-192.16
-211.75
-215.18
-203.95
-182.02
-153.85
-123.61
-96.05
-74.20
-61.51
-61.40
-75.88
-104.26
-142.78
-185.49
-224.66
-250.77
-256.79
-242.50
-215.51
-187.36
-167.39
-158.61
-158.32
-160.63
-161.50
-159.91
-156.94
-153.57
-148.99
-141.17
-127.90
-108.39
-83.87
-57.14
-31.43
-8.93
10.16
27.71
46.60
69.40
97.07
128.78
162.17
194.53
223.71
248.85
270.87
292.22
316.45
346.79
384.54
427.33
468.75
499.61
511.15
498.59
463.40
413.01
357.94
307.82
268.21
239.55
218.38
199.48
177.80
149.34
111.63
64.21
9.51
-46.70
-95.97
-129.38
-140.66
-128.77
-98.97
-61.28
-27.08
-5.38
-0.29
-10.53
-30.98
-55.19
-77.63
-94.94
-105.98
-110.99
-110.78
-106.20
-98.23
-88.25
-78.39
-71.27
-69.35
-74.10
-85.26
-101.03
-118.65
-135.47
-149.40
-159.14
-163.93
-163.45
-157.91
-148.04
-135.75
-124.49
-118.67
-121.87
-135.28
-156.72
-181.47
-204.11
-219.90
-226.52
-224.42
-215.83
-202.30
-183.87
-158.97
-126.02
-84.87
-36.23
18.84
79.41
144.00
211.17
276.95
335.07
377.98
394.96
380.39
339.06
286.13
238.76
209.26
199.18
202.80
212.30
221.44
227.51
229.80
227.84
219.39
204.09
181.05
151.01
115.26
74.60
28.82
-23.60
-78.56
-144.51
-217.34
-289.43
-349.73
-387.13
-394.22
-369.11
-315.93
-243.44
-163.66
-86.41
-20.30
29.51
61.65
78.26
83.80
82.82
77.72
66.98
49.14
23.83
-4.30
-25.53
-29.08
-8.80
32.01
80.48
118.54
131.59
112.93
65.99
1.58
-66.94
-127.60
-171.34
-191.54
-184.19
-148.36
-88.99
-17.34
51.11
101.34
124.09
118.43
91.03
52.01
10.42
-29.35
-67.68
-107.12
-148.80
-189.80
-223.40
-241.18
-237.26
-212.07
-173.66
-135.43
-111.58
-111.57
-136.41
-179.14
-226.26
-262.55
-275.81
-260.39
-218.10
-157.07
-89.26
-27.76
13.86
25.99
5.00
-45.73
-116.04
-191.26
-255.71
-296.87
-308.72
-295.22
-264.94
-227.00
-187.69
-149.95
-114.65
-82.89
-57.18
-28.70
4.81
43.54
86.61
133.00
180.81
226.28
264.22
288.35
299.46
298.57
288.44
271.88
250.11
221.83
184.07
134.79
75.27
11.61
-48.23
-94.72
-120.51
-123.42
-107.43
-80.78
-52.13
-27.56
-9.06
3.49
11.97
18.55
25.51
35.79
52.98
80.50
118.98
164.26
207.33
237.49
245.77
228.43
187.64
130.48
66.80
6.59
-42.01
-73.42
-85.44
-80.22
-63.71
-46.32
-38.50
-45.38
-62.66
-84.55
-105.16
-120.06
-126.07
-120.31
-101.42
-69.90
-28.38
19.14
68.01
114.85
157.41
195.72
233.71
275.59
323.68
376.29
427.30
467.54
488.24
484.00
442.37
364.50
264.41
163.64
80.06
20.54
-18.30
-41.40
-56.65
-68.25
-76.50
-83.15
-92.65
-110.84
-141.67
-183.09
-227.65
-265.82
-289.35
-293.24
-278.61
-251.39
-219.32
-188.63
-162.09
-139.47
-119.04
-97.86
-71.58
-36.45
9.32
63.74
120.47
170.23
203.18
212.54
197.83
165.40
125.20
86.51
54.36
28.81
7.11
-14.28
-37.57
-62.69
-87.86
-110.55
-127.60
-134.96
-128.81
-107.30
-74.66
-41.17
-19.43
-19.00
-41.71
-80.36
-122.34
-155.88
-174.16
-178.43
-174.40
-166.75
-155.81
-138.26
-110.66
-70.98
-28.65
7.29
27.65
26.42
5.88
-22.54
-44.29
-50.58
-43.44
-34.34
-34.40
-49.70
-76.80
-104.38
-119.03
-111.84
-82.12
-37.90
7.54
43.08
61.10
62.22
53.23
43.01
38.29
41.69
52.24
67.00
83.79
96.95
101.14
91.73
67.08
30.55
-9.36
-41.69
-57.48
-52.11
-31.12
-2.87
24.86
48.95
72.02
100.31
139.33
180.48
229.75
274.56
302.21
302.43
271.00
211.79
136.19
60.22
0.17
-30.84
-30.94
-5.69
32.22
67.40
86.88
84.16
61.01
25.80
-9.42
-37.20
-54.50
-64.50
-74.07
-90.18
-116.37
-151.31
-189.49
-222.94
-246.27
-256.37
-253.50
-240.28
-220.13
-195.94
-169.57
-142.34
-115.31
-90.63
-70.29
-55.34
-44.25
-32.40
-13.35
18.53
64.69
120.59
175.85
217.56
234.60
221.07
177.82
111.94
34.49
-42.22
-106.94
-151.65
-172.65
-170.90
-151.11
-120.16
-85.72
-55.10
-34.60
-28.59
-38.31
-60.47
-86.88
-106.67
-110.83
-97.15
-72.36
-49.33
-40.26
-49.99
-73.89
-101.21
-122.03
-132.61
-136.01
-137.73
-140.10
-139.58
-128.89
-102.19
-59.81
-9.18
38.96
76.21
100.53
116.20
130.39
149.14
174.93
206.82
241.84
276.34
306.37
327.57
335.41
326.09
298.05
252.93
195.23
130.35
62.58
-5.88
-74.13
-140.42
-200.35
-247.22
-274.37
-278.47
-261.64
-230.53
-192.95
-154.06
-114.65
-72.64
-27.04
18.75
56.65
77.51
76.60
57.47
31.48
13.45
15.32
41.55
88.33
145.94
203.09
249.88
279.29
287.36
273.57
241.57
199.69
160.02
135.23
133.91
156.93
196.53
239.09
270.41
280.96
268.49
236.98
193.13
142.76
89.55
36.09
-13.50
-52.21
-71.17
-62.97
-25.33
36.56
111.06
183.42
239.94
271.32
274.06
250.28
206.20
150.12
90.55
34.33
-14.45
-54.71
-87.62
-115.78
-142.16
-169.58
-199.62
-231.58
-261.42
-281.76
-284.21
-263.55
-221.98
-170.42
-125.09
-100.66
-103.18
-126.96
-157.32
-177.58
-176.30
-150.74
-105.64
-49.07
11.56
70.66
123.30
163.81
185.79
183.72
155.36
102.87
32.59
-46.19
-122.38
-184.38
-221.44
-226.49
-198.74
-145.44
-80.92
-22.13
17.05
30.09
18.70
-9.84
-46.71
-84.66
-118.68
-144.79
-158.79
-156.23
-134.03
-92.41
-35.59
29.26
94.95
156.64
212.25
260.95
300.95
328.52
339.07
329.72
301.32
258.70
208.67
156.78
105.02
51.56
-6.69
-70.51
-135.86
-194.17
-235.24
-251.47
-240.74
-206.71
-156.78
-99.16
-40.81
13.33
59.55
94.68
115.96
121.62
111.58
87.36
51.92
9.47
-34.55
-73.29
-98.93
-104.41
-85.96
-45.33
9.56
66.49
112.90
139.84
144.27
129.08
100.33
63.83
22.20
-25.59
-81.52
-144.86
-209.58
-264.72
-297.83
-300.41
-271.54
-219.27
-157.73
-102.01
-63.38
-46.68
-50.26
-68.04
-91.90
-112.68
-122.86
-117.78
-96.11
-59.61
-12.21
41.62
98.10
154.70
211.85
269.87
327.82
382.96
431.30
468.97
493.21
502.54
496.76
478.87
451.64
417.09
376.65
331.68
284.24
236.97
192.34
139.61
74.94
0.62
-74.71
-140.46
-189.43
-219.77
-233.89
-236.35
-231.75
-221.10
-205.30
-185.63
-163.51
-141.20
-121.32
-106.59
-99.57
-102.50
-115.00
-137.10
-167.19
-200.28
-227.84
-239.46
-226.92
-189.09
-137.64
-84.62
-43.96
-26.75
-36.02
-65.70
-103.91
-138.53
-162.36
-174.69
-179.07
-177.76
-175.02
-174.60
-179.11
-190.26
-208.30
-231.07
-252.86
-265.71
-263.67
-245.52
-214.42
-175.81
-135.36
-96.90
-61.68
-28.40
4.33
36.02
64.70
89.14
110.83
132.58
156.93
185.31
218.70
256.21
294.40
327.79
350.22
357.75
348.83
324.69
282.20
224.92
162.07
104.09
59.76
27.54
5.20
-8.63
-15.86
-19.89
-25.26
-37.33
-61.31
-100.88
-157.30
-224.35
-291.17
-344.74
-373.69
-372.51
-343.29
-295.42
-241.94
-194.76
-159.05
-134.38
-118.08
-105.39
-94.56
-85.20
-77.73
-72.14
-66.80
-56.89
-37.42
-5.47
38.51
87.72
133.91
168.28
183.76
171.41
130.26
67.35
-4.74
-68.18
-118.44
-154.73
-175.75
-178.86
-160.64
-119.77
-60.51
7.36
71.43
120.12
148.66
158.58
155.43
146.71
140.43
143.12
158.18
184.33
214.30
237.93
244.07
223.85
173.80
98.14
7.75
-82.84
-159.23
-211.18
-233.66
-227.74
-199.74
-158.72
-113.20
-69.09
-28.73
8.68
45.48
84.52
127.15
172.10
215.34
251.46
275.56
285.21
281.66
269.56
255.57
245.87
244.12
250.75
263.71
279.35
293.29
300.71
296.97
278.87
245.82
200.30
147.53
94.46
47.50
10.82
-14.76
-31.76
-44.50
-57.95
-77.07
-106.04
-147.05
-199.19
-258.04
-316.27
-365.00
-396.17
-403.05
-384.16
-346.88
-305.39
-273.40
-257.44
-255.71
-261.82
-269.52
-275.60
-280.31
-285.52
-291.37
-295.66
-295.08
-287.31
-272.08
-250.96
-226.46
-200.86
-176.76
-154.71
-133.60
-111.73
-88.14
-63.18
-38.29
-15.33
4.09
19.21
30.88
41.07
52.04
65.38
81.54
99.94
119.51
139.01
157.55
175.04
191.91
208.92
226.90
246.61
268.63
293.04
318.96
344.30
366.16
381.34
387.14
382.04
366.02
340.66
308.72
273.53
238.27
205.40
176.45
152.19
133.02
119.40
111.69
109.94
113.25
119.52
125.71
128.59
125.92
117.06
103.20
86.73
70.48
56.89
47.50
42.58
40.93
40.28
38.02
32.35
23.12
12.10
2.30
-3.22
-2.69
3.59
13.07
21.53
24.09
16.45
-3.59
-34.65
-71.39
-105.53
-128.77
-136.50
-130.62
-119.51
-114.59
-124.78
-151.87
-189.32
-225.35
-248.11
-250.82
-233.93
-203.81
-169.63
-140.03
-121.50
-118.02
-131.39
-161.14
-204.05
-253.78
-301.30
-336.75
-351.73
-341.79
-307.47
-253.85
-188.53
-119.40
-52.43
9.15
64.53
114.14
158.12
195.37
223.79
241.35
247.52
244.27
235.94
227.79
224.66
229.00
239.79
252.77
262.03
261.99
249.32
224.01
189.01
149.74
111.83
79.39
54.15
35.32
19.45
1.43
-24.06
-60.62
-107.09
-157.37
-201.76
-229.54
-232.22
-206.68
-155.66
-86.73
-10.24
64.08
127.81
174.61
199.21
199.76
180.19
150.75
124.88
108.16
100.51
98.37
97.06
92.79
82.14
61.75
29.25
-16.32
-73.81
-138.70
-204.66
-265.34
-314.79
-340.42
-333.20
-290.19
-216.72
-124.66
-26.63
67.44
146.49
211.21
262.72
299.63
319.77
321.65
305.42
274.62
233.97
188.07
141.14
94.71
48.08
0.42
-48.09
-95.70
-138.90
-174.04
-198.61
-211.52
-215.10
-214.55
-216.58
-227.80
-252.43
-289.97
-334.37
-374.95
-399.01
-397.23
-367.36
-315.51
-254.29
-198.39
-159.60
-143.70
-150.08
-173.46
-206.86
-243.09
-275.21
-296.59
-301.23
-285.31
-248.74
-195.47
-131.59
-63.51
4.63
70.55
132.71
188.06
230.96
254.63
254.50
231.74
193.78
152.97
121.51
108.03
114.96
138.69
171.38
203.73
227.94
237.73
229.53
201.20
153.51
90.60
19.63
-50.86
-113.27
-162.50
-198.20
-215.18
-211.64
-188.81
-151.15
-104.82
-56.21
-15.92
12.84
27.56
26.94
10.85
-17.94
-53.45
-88.48
-116.43
-133.54
-139.06
-136.26
-129.13
-121.18
-113.17
-103.03
-87.67
-64.90
-35.59
-3.76
22.61
34.56
24.84
-8.31
-59.36
-116.81
-167.05
-199.96
-212.01
-207.29
-193.93
-179.70
-168.49
-159.84
-151.13
-140.44
-128.05
-115.53
-104.34
-93.93
-81.56
-63.55
-37.22
-2.23
39.17
82.92
124.86
161.92
193.12
219.34
242.31
263.51
283.31
300.83
314.63
323.79
328.65
330.74
331.90
333.07
333.58
331.50
324.89
313.08
297.45
281.09
267.63
259.92
259.29
265.53
277.45
293.42
311.70
330.36
347.26
360.19
367.04
366.27
356.97
338.85
312.21
277.80
236.76
190.42
140.13
87.34
33.79
-18.04
-65.04
-104.25
-134.10
-155.38
-171.22
-185.85
-202.21
-220.34
-237.19
-248.04
-248.96
-238.81
-219.56
-195.13
-169.70
-146.00
-125.36
-108.24
-94.55
-83.57
-73.76
-62.72
-47.91
-27.64
-1.52
28.83
60.21
88.92
111.66
126.07
131.21
127.74
117.76
104.66
91.33
79.17
67.78
55.56
40.78
22.68
1.92
-23.03
-50.24
-75.60
-94.01
-101.60
-97.66
-85.12
-69.44
-55.85
-47.51
-44.25
-43.66
-42.53
-38.71
-31.59
-22.94
-16.26
-15.43
-23.17
-39.82
-64.22
-94.31
-127.50
-160.45
-189.09
-209.27
-218.07
-215.13
-202.66
-184.76
-165.57
-147.72
-131.91
-117.73
-104.70
-92.61
-81.07
-68.41
-51.60
-27.50
5.45
45.90
89.83
132.22
169.12
198.61
220.55
235.36
243.02
242.68
233.36
215.19
189.82
159.87
127.65
94.33
60.59
28.50
2.93
-8.81
-0.01
30.94
77.58
125.76
158.04
159.69
124.14
54.83
-36.54
-134.31
-223.16
-290.80
-329.03
-333.58
-304.03
-243.73
-159.99
-63.49
33.06
117.06
178.79
213.70
223.39
214.49
196.46
178.36
165.87
160.20
158.92
158.41
155.69
149.71
139.85
126.59
110.79
93.18
74.03
53.11
30.49
5.96
-20.25
-49.84
-83.40
-120.14
-158.18
-195.42
-230.40
-261.69
-289.62
-314.88
-341.98
-373.75
-410.14
-448.26
-483.64
-512.41
-531.35
-541.10
-544.01
-547.54
-556.25
-569.41
-581.47
-584.49
-572.09
-540.58
-493.40
-407.09
-277.67
-119.16
41.39
178.60
281.23
342.15
378.03
404.30
431.61
460.46
488.37
515.24
537.62
550.37
547.62
526.87
487.45
433.58
369.15
299.98
232.27
170.84
118.89
77.53
47.60
27.19
13.57
1.00
-15.70
-39.80
-72.15
-110.69
-151.63
-189.39
-219.80
-240.21
-251.63
-257.52
-262.66
-271.72
-287.15
-308.50
-332.06
-352.96
-366.26
-368.86
-359.63
-339.11
-308.91
-270.81
-226.53
-177.62
-125.98
-73.84
-23.60
22.62
63.61
99.47
131.76
162.91
195.44
231.40
271.93
317.35
366.89
418.23
466.91
507.06
532.60
539.47
527.42
500.07
463.17
422.24
381.05
341.63
305.53
274.83
251.84
237.45
229.18
220.83
204.00
171.27
119.02
49.23
-30.72
-109.69
-175.42
-217.25
-228.37
-207.40
-159.07
-93.71
-25.21
32.08
66.94
73.94
54.39
15.41
-32.92
-80.98
-122.44
-155.62
-183.01
-209.35
-239.07
-274.29
-313.97
-354.13
-388.80
-411.60
-417.40
-403.91
-372.43
-327.42
-275.18
-221.74
-171.41
-125.88
-84.40
-44.55
-3.51
40.36
86.35
130.85
168.20
192.42
199.63
189.35
164.73
130.98
92.97
53.25
11.50
-34.16
-84.77
-138.35
-189.62
-231.69
-258.76
-268.73
-263.86
-249.29
-230.30
-209.94
-187.93
-162.36
-132.35
-99.35
-67.66
-42.20
-25.67
-16.79
-10.67
-0.39
20.07
53.22
98.05
149.62
200.26
241.20
264.35
264.05
240.63
200.78
156.17
121.50
108.11
118.95
146.60
176.67
194.41
194.57
182.32
168.40
162.82
167.24
174.47
174.02
160.39
136.84
116.50
112.84
119.48
121.38
99.96
44.34
-42.05
-135.45
-222.03
-291.89
-339.79
-365.22
-370.24
-357.00
-328.21
-288.64
-245.49
-209.28
-187.95
-184.68
-196.30
-212.36
-219.88
-208.34
-175.67
-126.71
-71.60
-18.35
29.10
70.23
106.32
137.28
162.14
176.50
179.52
173.66
165.59
163.27
172.37
194.99
229.21
271.62
312.03
341.43
351.24
336.63
298.31
243.25
183.34
131.33
98.84
85.07
85.91
94.20
104.84
117.52
136.11
165.07
187.24
218.02
241.79
245.52
221.58
172.39
110.66
54.69
21.44
20.48
54.20
111.30
179.89
248.61
308.58
353.36
377.90
378.56
354.18
309.58
249.59
183.61
120.99
68.34
28.57
1.24
-16.16
-27.55
-35.69
-45.14
-57.33
-71.28
-83.87
-91.72
-93.21
-89.18
-82.15
-73.86
-64.48
-51.50
-31.82
-4.08
29.91
65.65
97.96
123.01
138.61
145.58
144.25
134.33
114.97
85.77
47.44
1.70
-49.13
-104.61
-160.78
-215.37
-265.36
-307.49
-338.58
-356.91
-362.86
-359.32
-353.72
-348.39
-348.65
-358.50
-379.37
-409.28
-442.56
-471.24
-487.73
-491.42
-479.13
-456.67
-431.83
-410.49
-393.57
-376.83
-353.96
-297.67
-239.50
-182.79
-138.45
-115.75
-118.34
-142.45
-178.11
-212.44
-233.79
-239.04
-223.57
-192.56
-154.25
-116.88
-85.90
-62.65
-45.06
-29.24
-13.96
7.19
36.31
74.07
118.92
166.49
210.16
242.96
260.54
261.89
255.20
250.17
256.12
277.91
313.52
354.58
388.99
405.03
393.94
354.61
290.37
208.05
115.63
21.12
-67.48
-141.97
-194.45
-219.96
-218.27
-196.31
-166.07
-140.18
-126.50
-125.12
-129.30
-129.64
-119.03
-95.79
-63.35
-27.36
7.59
40.06
71.84
106.29
146.10
191.13
237.20
276.65
300.41
300.88
274.45
222.77
152.13
71.64
-9.04
-81.28
-138.16
-174.49
-187.05
-175.09
-140.98
-90.32
-31.06
28.24
80.37
120.87
148.32
163.65
169.13
167.07
159.15
146.34
129.29
108.91
86.77
65.09
46.28
32.46
24.94
24.04
29.02
38.21
49.29
59.80
67.73
72.15
73.36
72.62
71.55
71.28
71.91
72.39
70.98
65.97
56.54
43.22
27.79
12.50
-0.88
-12.00
-22.10
-33.61
-49.30
-71.25
-100.16
-135.15
-173.80
-212.52
-247.09
-273.35
-288.11
-290.02
-279.89
-260.35
-234.79
-206.23
-176.58
-146.64
-116.71
-87.19
-58.85
-32.36
-7.73
15.94
40.22
66.44
94.74
123.49
149.55
169.27
179.77
180.19
171.99
158.57
144.00
131.53
122.55
116.28
110.46
102.62
91.24
76.46
60.07
44.76
33.24
27.35
27.70
33.58
43.08
53.51
61.94
65.92
64.15
56.85
45.46
31.85
17.36
2.06
-15.22
-35.93
-60.63
-88.01
-114.93
-137.28
-151.28
-154.37
-145.76
-126.16
-97.47
-62.51
-24.77
11.96
44.21
69.33
85.99
94.15
94.86
89.73
80.60
69.23
57.19
45.62
35.11
25.70
17.08
9.04
1.69
-4.52
-8.95
-11.22
-11.47
-10.23
-8.25
-6.26
-4.76
-3.99
-3.94
-4.43
-5.14
-5.76
-6.04
-5.84
-5.09
-3.85
-2.22
-0.35
1.54
3.29
4.77
5.95
6.83
7.41
7.61
7.32
6.41
4.89
2.92
0.90
-0.73
-1.55
-1.34
-0.10
1.87
4.05
5.93
7.15
7.68
7.80
7.90
8.21
8.65
8.83
8.37
7.15
5.57
4.38
4.32
5.73
8.27
11.16
13.48
14.65
14.58
13.62
12.29
10.93
9.57
8.03
6.04
3.50
0.46
-2.93
-6.60
-10.56
-14.88
-19.46
-23.94
-27.71
-30.11
-30.74
-29.53
-26.55
-21.74
-14.68
-4.79
8.15
23.46
39.28
53.00
62.07
64.79
60.93
51.59
38.76
24.68
11.31
0.14
-7.88
-12.25
-12.90
-10.15
-4.76
2.14
9.23
15.08
18.53
18.96
16.48
11.99
6.82
2.15
-1.33
-3.70
-5.47
-7.18
-8.97
-10.47
-11.15
-10.64
-9.17
-7.53
-6.71
-7.44
-9.85
-13.50
-17.70
-21.81
-25.39
-28.04
-29.15
-27.88
-23.35
-14.98
-2.76
12.72
30.45
49.25
67.82
84.55
97.32
103.60
101.01
88.18
65.49
35.36
1.81
-30.58
-57.75
-76.95
-87.01
-88.11
-81.44
-68.87
-52.77
-35.80
-20.52
-8.94
-1.98
0.64
0.25
-1.42
-2.92
-3.43
-2.83
-1.41
0.44
2.52
4.69
6.75
8.38
9.12
8.69
7.06
4.54
1.66
-1.04
-3.25
-4.92
-6.20
-7.27
-8.22
-8.98
-9.34
-9.09
-8.03
-6.13
-3.54
-0.63
2.05
3.99
4.85
4.63
3.68
2.53
1.59
1.09
0.99
1.13
1.41
1.88
2.66
3.81
5.22
6.57
7.50
7.78
7.33
6.29
4.92
3.52
2.28
1.29
0.54
-0.06
-0.61
-1.18
-1.77
-2.33
-2.82
-3.26
-3.76
-4.44
-5.33
-6.30
-7.11
-7.47
-7.21
-6.37
-5.10
-3.65
-2.15
-0.63
0.96
2.66
4.46
6.24
7.86
9.12
9.91
10.13
9.80
8.99
7.83
6.48
5.05
3.62
2.26
1.02
-0.04
-0.84
-1.37
-1.72
-2.07
-2.61
-3.42
-4.42
-5.32
-5.75
-5.44
-4.37
-2.78
-1.12
0.17
0.88
1.07
0.97
0.83
0.77
0.74
0.61
0.31
-0.14
-0.62
-0.95
-1.06
-0.96
-0.71
-0.40
-0.10
0.17
0.39
0.55
0.64
0.67
0.58
0.36
-0.01
-0.40
-0.68
-0.75
-0.58
-0.34
-0.30
-0.74
-1.82
-3.51
-5.62
-7.98
-10.39
-12.46
-13.44
-12.14
-7.16
2.56
17.03
34.99
54.07
71.39
84.31
90.75
89.11
78.20
57.30
26.73
-11.38
-52.89
-92.23
-123.70
-143.08
-148.51
-140.49
-121.25
-93.83
-61.48
-27.57
4.49
31.58
51.33
62.72
66.25
63.58
56.79
47.76
37.76
27.61
17.90
9.19
2.00
-3.27
-6.53
-7.98
-7.97
-6.96
-5.35
-3.47
-1.65
-0.13
0.90
1.37
1.26
0.59
-0.57
-2.14
-3.95
-5.72
-7.16
-8.01
-8.14
-7.62
-6.60
-5.28
-3.84
-2.35
-0.90
0.40
1.42
2.04
2.24
2.13
1.93
1.81
1.86
2.06
2.29
2.44
2.39
2.13
1.67
1.07
0.35
-0.42
-1.17
-1.86
-2.49
-3.15
-3.91
-4.80
-5.69
-6.33
-6.43
-5.83
-4.59
-2.98
-1.33
0.16
1.52
2.94
4.58
6.37
7.99
9.01
9.17
8.54
7.50
6.57
6.04
5.88
5.73
5.17
4.02
2.47
0.95
-0.07
-0.43
-0.37
-0.35
-0.89
-2.21
-4.28
-6.81
-9.49
-12.19
-14.96
-17.79
-20.28
-21.50
-20.15
-15.19
-6.51
4.64
15.83
24.12
27.01
22.88
11.05
-8.66
-36.29
-71.46
-112.51
-155.66
-194.91
-223.12
-234.14
-224.78
-195.76
-151.05
-96.20
-36.63
23.17
79.30
127.73
164.15
184.75
187.81
174.78
150.18
120.10
90.03
63.28
40.49
20.43
1.32
-17.92
-37.23
-55.63
-71.73
-84.43
-93.12
-97.76
-98.52
-95.46
-88.29
-76.58
-60.27
-40.20
-18.46
1.86
17.55
26.23
27.34
22.38
14.44
7.05
2.98
3.26
6.97
11.61
14.14
12.13
4.67
-7.15
-20.67
-32.48
-39.63
-40.30
-34.06
-21.40
-3.22
19.59
46.14
75.30
105.55
134.99
161.90
185.23
204.78
220.77
232.98
240.08
239.76
229.59
208.29
176.56
137.02
93.20
48.37
4.74
-36.58
-74.88
-109.29
-138.74
-162.57
-181.37
-197.17
-212.64
-229.59
-247.73
-264.70
-277.21
-282.82
-281.18
-274.00
-263.90
-252.78
-240.80
-226.57
-208.03
-183.84
-154.05
-120.08
-83.98
-47.58
-12.02
22.42
55.93
88.93
121.87
155.36
190.06
226.47
264.37
302.22
336.91
364.32
380.47
382.87
371.55
348.99
319.23
286.47
253.76
222.64
193.45
166.12
140.74
117.78
97.72
80.69
66.31
53.80
42.46
32.20
23.78
18.74
18.81
25.35
38.73
58.13
81.55
106.23
129.07
147.10
157.83
159.37
150.54
130.99
101.51
64.19
22.44
-19.49
-57.13
-86.60
-105.65
-114.19
-114.51
-110.76
-107.93
-110.54
-121.43
-141.15
-168.00
-198.93
-230.53
-259.95
-285.26
-305.33
-319.54
-327.62
-330.08
-328.45
-325.04
-321.95
-319.66
-316.17
-307.28
-288.32
-256.38
-212.04
-159.48
-105.07
-54.86
-12.63
20.90
47.44
69.80
90.75
112.68
137.99
169.26
208.47
255.56
306.91
355.28
391.38
406.88
397.37
363.89
312.32
251.03
188.17
129.94
80.26
41.41
15.00
2.19
3.26
16.87
39.76
67.17
94.04
116.53
132.97
144.25
152.81
160.93
169.03
174.95
174.65
164.02
140.98
106.42
63.87
17.90
-27.55
-70.04
-108.46
-142.14
-170.28
-191.77
-205.80
-212.39
-212.65
-208.28
-200.86
-191.30
-179.90
-166.75
-152.29
-137.48
-123.45
-111.01
-100.39
-91.25
-83.11
-75.68
-69.02
-63.26
-58.37
-53.95
-49.40
-44.22
-38.44
-32.62
-27.67
-24.45
-23.32
-24.07
-26.00
-28.27
-30.20
-31.56
-32.53
-33.62
-35.28
-37.70
-40.63
-43.44
-45.45
-46.13
-45.35
-43.45
-41.00
-38.76
-37.47
-37.70
-39.73
-43.22
-47.13
-49.74
-49.03
-43.36
-32.14
-16.06
3.19
23.65
43.67
62.09
78.14
91.02
99.64
102.68
98.96
88.00
70.69
49.07
26.00
4.50
-13.05
-25.38
-32.44
-35.32
-35.19
-32.49
-27.15
-19.18
-9.33
0.58
8.33
12.32
11.93
8.47
4.76
3.32
5.18
9.37
13.51
15.10
12.61
5.28
-5.59
-16.64
-23.79
-23.00
-11.31
12.37
47.20
90.48
137.39
176.78
198.00
193.93
164.67
117.17
61.08
4.77
-42.41
-80.49
-110.16
-130.48
-139.88
-137.04
-121.69
-95.68
-61.06
-19.82
23.39
64.73
101.50
132.45
158.06
179.15
194.80
201.68
195.11
171.22
130.95
80.20
27.29
-20.16
-57.80
-84.56
-100.63
-105.82
-99.80
-82.95
-58.46
-32.88
-13.92
-7.21
-13.80
-29.87
-48.93
-65.05
-74.44
-76.05
-71.02
-61.63
-50.49
-40.14
-32.70
-29.46
-30.54
-34.34
-38.13
-38.91
-34.65
-25.31
-13.03
-1.41
6.01
7.21
2.47
-6.01
-15.32
-23.09
-28.13
-30.40
-30.32
-28.30
-24.65
-19.80
-14.62
-10.30
-7.92
-7.74
-9.01
-10.03
-9.05
-5.01
1.87
10.19
17.87
23.04
24.73
23.11
19.04
13.33
6.35
-2.23
-13.11
-26.76
-42.99
-61.16
-80.37
-99.53
-116.58
-128.12
-129.78
-117.80
-91.31
-53.87
-13.07
22.03
44.36
51.56
46.40
34.97
23.86
17.81
18.88
26.73
39.67
55.03
69.62
79.53
80.54
69.31
45.27
11.82
-23.35
-50.09
-59.82
-48.74
-20.03
17.44
52.48
76.27
85.49
82.45
72.91
62.60
55.31
52.03
51.63
51.72
49.24
41.49
26.84
6.08
-17.70
-39.80
-56.36
-66.31
-71.64
-75.63
-80.10
-83.76
-80.02
-63.05
-30.04
16.64
70.06
122.02
166.58
201.79
228.64
248.53
260.30
260.50
244.94
211.79
163.23
104.82
43.27
-15.72
-67.82
-109.57
-137.35
-147.94
-140.62
-119.19
-92.14
-70.55
-64.32
-78.58
-112.06
-157.36
-203.51
-239.24
-255.69
-247.99
-215.48
-161.30
-91.46
-13.84
63.08
131.37
184.74
219.11
233.46
230.52
215.92
196.75
179.18
166.58
158.52
151.50
140.71
122.05
93.82
57.10
14.70
-30.02
-74.22
-116.54
-157.33
-198.17
-240.60
-284.55
-327.33
-364.46
-390.80
-401.83
-395.73
-374.13
-341.93
-305.27
-268.81
-234.21
-201.35
-169.49
-137.79
-106.83
-78.21
-54.30
-36.48
-23.31
-10.68
5.56
28.37
59.52
98.28
142.14
186.33
225.11
250.53
263.30
269.38
271.41
272.96
277.27
286.68
299.86
311.94
317.03
309.73
285.98
245.65
194.12
136.02
83.04
45.02
18.85
0.13
-14.50
-27.89
-42.29
-58.96
-79.02
-102.48
-128.86
-155.96
-178.75
-192.17
-193.78
-184.75
-168.55
-149.59
-131.06
-115.03
-102.07
-90.62
-78.88
-65.91
-51.81
-37.03
-22.47
-8.84
2.60
10.66
15.34
17.20
17.23
16.59
16.78
19.38
25.81
36.50
50.32
64.90
76.72
82.24
79.20
67.57
49.48
28.21
6.85
-12.69
-29.54
-43.40
-53.74
-59.55
-59.63
-53.53
-42.31
-28.67
-16.32
-8.63
-7.38
-12.07
-20.13
-28.16
-33.35
-34.59
-32.55
-29.11
-26.10
-24.57
-24.46
-25.10
-25.74
-25.76
-24.66
-21.83
-16.79
-9.47
-0.64
8.19
15.42
20.19
22.81
24.55
26.76
29.94
33.27
34.98
33.27
27.28
17.47
5.49
-6.63
-17.03
-24.59
-29.08
-31.21
-32.53
-35.19
-41.45
-52.92
-69.62
-89.26
-107.20
-117.47
-114.43
-94.91
-59.58
-13.24
36.47
81.42
115.52
136.42
145.28
145.35
139.50
128.36
110.02
81.63
41.85
-6.94
-58.19
-102.81
-132.19
-140.91
-128.05
-96.40
-50.87
2.98
59.57
113.02
156.98
185.21
193.21
179.95
148.75
106.62
62.15
22.91
-6.64
-25.78
-36.96
-44.13
-51.11
-60.24
-71.69
-83.57
-92.29
-93.72
-84.38
-62.91
-30.97
6.68
43.35
72.52
89.78
93.93
86.54
70.68
49.28
24.45
-2.36
-29.55
-54.87
-75.51
-88.87
-93.34
-88.59
-75.49
-55.67
-31.22
-4.54
21.90
45.77
65.37
79.82
88.99
93.29
93.37
90.03
84.32
77.55
71.09
65.84
61.52
56.70
49.38
38.22
23.83
9.17
-1.41
-3.98
3.02
17.96
36.71
54.38
67.10
72.78
70.61
60.20
41.12
13.54
-20.60
-57.05
-90.00
-114.02
-126.20
-127.07
-119.99
-109.32
-98.57
-89.44
-82.06
-75.71
-69.36
-61.69
-50.86
-34.58
-10.88
20.69
58.20
97.44
133.03
159.97
175.07
177.12
166.58
144.64
112.49
71.17
21.78
-33.87
-92.76
-150.48
-201.48
-239.76
-260.09
-259.15
-236.37
-194.12
-137.19
-71.97
-5.51
55.15
103.75
135.41
147.58
140.79
118.87
88.16
55.80
27.78
7.47
-4.78
-10.90
-13.84
-16.26
-19.73
-24.44
-29.23
-31.98
-30.17
-21.74
-6.01
15.68
40.15
63.39
82.19
95.21
103.06
106.97
106.96
100.67
83.84
52.62
6.44
-50.08
-107.45
-153.89
-179.00
-176.93
-147.84
-97.47
-35.11
28.64
84.21
124.62
146.33
149.52
137.36
114.76
86.58
56.33
25.71
-4.76
-34.50
-61.84
-83.97
-97.66
-100.41
-91.38
-71.98
-45.77
-17.77
6.84
24.38
34.26
39.58
46.22
60.12
84.00
115.25
146.17
166.70
168.18
146.65
104.07
47.68
-12.09
-63.97
-97.78
-106.16
-86.07
-40.03
23.60
91.92
150.36
186.33
192.31
167.27
116.08
47.69
-27.05
-97.39
-154.31
-191.52
-206.22
-199.33
-174.96
-139.50
-99.97
-62.52
-31.41
-8.80
4.91
10.53
9.52
3.54
-5.78
-16.93
-28.56
-39.40
-48.18
-53.81
-55.64
-53.76
-49.18
-43.63
-39.03
-36.82
-37.42
-39.94
-42.44
-42.69
-39.02
-31.11
-20.27
-8.94
0.26
5.65
7.06
5.74
3.52
1.78
0.84
0.11
-1.27
-3.66
-6.57
-8.92
-9.66
-8.42
-5.72
-2.70
-0.52
0.15
-0.65
-2.32
-4.16
-5.85
-7.52
-9.65
-12.69
-16.60
-20.79
-24.26
-25.99
-25.39
-22.56
-18.10
-12.94
-8.00
-3.94
-1.14
0.33
0.71
0.49
0.24
0.49
1.60
3.61
6.37
9.60
13.00
16.30
19.26
21.59
23.16
24.02
24.43
24.79
25.44
26.44
27.70
28.99
30.07
30.79
30.93
30.04
27.51
22.77
15.55
6.14
-4.64
-15.66
-25.82
-34.28
-40.59
-44.64
-46.51
-46.39
-44.51
-41.23
-37.00
-32.39
-27.94
-24.07
-20.90
-18.35
-16.25
-14.57
-13.44
-13.14
-13.83
-15.37
-17.37
-19.26
-20.75
-21.97
-23.35
-25.36
-28.02
-30.69
-32.16
-31.16
-26.94
-19.80
-11.13
-2.90
3.13
6.26
7.22
7.91
10.48
16.42
25.77
37.16
48.38
57.26
62.42
63.46
60.73
54.82
46.16
34.75
20.36
2.82
-17.70
-40.48
-64.37
-88.14
-110.76
-131.60
-150.51
-167.53
-182.74
-196.16
-207.86
-217.99
-226.67
-233.50
-237.18
-235.47
-225.86
-206.57
-177.62
-141.02
-100.12
-58.41
-18.39
18.84
53.21
84.91
113.99
140.20
163.50
184.33
203.76
223.16
244.12
268.15
296.44
328.79
362.67
392.66
411.26
411.26
388.49
343.73
282.28
211.82
139.60
70.91
9.34
-41.75
-78.12
-95.12
-89.71
-62.72
-19.65
30.62
78.97
119.09
149.10
171.00
188.82
206.29
225.64
247.49
271.47
297.04
323.25
348.29
368.98
380.99
380.37
365.49
338.08
302.77
265.09
229.10
196.04
164.57
132.44
98.55
63.87
30.95
2.43
-20.54
-38.89
-55.04
-71.47
-89.47
-108.58
-127.08
-143.08
-155.77
-165.81
-175.06
-185.74
-199.27
-216.06
-235.93
-259.04
-286.19
-317.97
-353.52
-389.46
-420.33
-440.57
-447.09
-440.79
-425.87
-407.31
-388.07
-367.79
-344.02
-314.84
-281.16
-246.76
-216.20
-192.12
-173.90
-158.98
-145.75
-135.66
-132.77
-140.78
-159.69
-184.28
-206.05
-217.45
-215.61
-203.34
-186.59
-170.29
-155.25
-137.96
-113.43
-78.83
-35.55
11.59
57.14
98.01
134.45
168.83
203.04
236.56
266.52
289.16
301.69
303.19
294.17
275.54
248.12
213.22
173.75
134.86
103.07
84.37
81.91
95.12
120.44
153.26
189.99
229.04
270.65
315.62
363.70
412.46
456.96
490.54
506.68
501.19
473.73
428.04
370.45
307.83
245.82
188.06
136.69
93.23
59.10
35.14
20.81
13.56
9.09
2.43
-10.37
-30.93
-57.81
-86.89
-112.74
-130.54
-137.83
-135.43
-127.22
-118.58
-114.52
-117.91
-128.86
-145.47
-165.16
-186.07
-207.64
-230.26
-254.21
-278.56
-300.72
-316.75
-322.55
-315.36
-295.11
-264.72
-229.32
-194.53
-164.65
-141.59
-124.88
-112.65
-102.92
-94.49
-86.93
-79.99
-72.95
-64.50
-53.26
-38.56
-21.02
-2.35
15.15
29.51
39.69
45.70
48.34
48.64
47.37
44.84
40.94
35.46
28.46
20.44
12.34
5.31
0.22
-2.47
-2.93
-1.88
-0.37
0.55
0.08
-1.97
-4.99
-7.83
-9.20
-8.30
-5.55
-2.70
-2.54
-7.92
-20.64
-40.55
-65.32
-91.16
-113.77
-129.69
-136.91
-135.12
-125.35
-109.25
-88.77
-65.87
-42.66
-21.42
-4.32
7.10
12.52
13.14
11.55
10.80
13.48
20.70
31.78
44.60
56.42
64.92
68.83
68.16
63.79
56.95
48.64
39.39
29.39
18.73
7.73
-3.00
-12.66
-20.57
-26.34
-29.95
-31.64
-31.65
-30.11
-26.97
-22.21
-16.06
-9.08
-2.10
3.97
8.57
11.59
13.41
14.67
15.98
17.61
19.45
21.20
22.56
23.39
23.81
24.03
24.23
24.39
24.41
24.10
23.35
22.22
20.87
19.51
18.32
17.47
17.11
17.40
18.46
20.27
22.59
24.95
26.79
27.68
27.47
26.40
25.00
23.91
23.57
24.01
24.65
24.54
22.63
18.24
11.39
2.94
-5.71
-13.18
-18.64
-22.17
-24.65
-27.40
-31.50
-37.39
-44.53
-51.38
-55.49
-53.96
-44.25
-25.20
1.98
33.40
62.98
84.07
91.38
82.59
59.01
24.90
-13.92
-51.68
-83.76
-107.23
-120.73
-124.16
-118.23
-104.25
-83.97
-59.62
-33.86
-9.56
10.62
24.87
32.52
34.13
31.13
25.12
17.46
9.05
0.69
-6.49
-10.75
-9.87
-1.94
13.93
36.80
63.86
90.91
113.35
127.39
130.96
124.10
108.68
87.69
64.34
41.39
20.95
4.48
-6.94
-12.54
-11.82
-4.91
7.20
22.61
38.64
52.44
61.58
64.64
61.36
52.59
39.82
24.71
8.76
-6.85
-21.30
-33.97
-44.40
-52.33
-57.59
-60.29
-60.76
-59.52
-57.22
-54.41
-51.48
-48.57
-45.69
-42.78
-39.87
-37.10
-34.68
-32.79
-31.42
-30.42
-29.52
-28.48
-27.10
-25.39
-23.48
-21.56
-19.85
-18.46
-17.33
-16.24
-14.83
-12.77
-9.95
-6.59
-3.18
-0.26
1.80
3.00
3.58
3.95
4.39
4.99
5.66
6.24
6.62
6.77
6.76
6.59
6.28
5.82
5.23
4.58
3.89
3.13
2.30
1.45
0.76
0.56
1.14
2.63
4.86
7.39
9.68
11.28
12.08
12.33
12.56
13.36
15.14
17.94
21.41
24.88
27.68
29.34
29.94
30.05
30.53
32.20
35.34
39.46
43.39
45.63
44.96
41.00
34.41
26.74
19.82
15.06
12.84
12.50
12.59
11.47
7.99
1.63
-7.39
-17.98
-28.02
-34.30
-33.15
-21.99
-1.18
24.96
48.84
62.42
60.68
44.07
18.33
-8.24
-28.60
-39.61
-42.24
-39.74
-35.05
-29.24
-21.88
-12.47
-1.71
8.26
14.89
16.64
13.77
8.21
2.49
-1.42
-2.86
-2.46
-1.62
-1.64
-3.15
-5.97
-9.21
-11.82
-13.08
-12.87
-11.71
-10.50
-10.07
-10.88
-12.80
-15.19
-17.18
-17.99
-17.27
-15.17
-12.20
-9.02
-6.18
-4.03
-2.65
-2.04
-2.13
-2.87
-4.16
-5.81
-7.45
-8.71
-9.29
-9.07
-8.19
-6.95
-5.65
-4.51
-3.61
-2.95
-2.44
-2.08
-1.83
-1.66
-1.52
-1.32
-1.05
-0.82
-0.79
-1.08
-1.64
-2.25
-2.64
-2.59
-2.10
-1.36
-0.63
-0.06
0.36
0.76
1.27
1.91
2.55
3.00
3.14
3.01
2.72
2.45
2.36
2.47
2.72
2.95
2.97
2.62
1.89
0.91
0.05
-0.30
0.16
1.38
2.91
4.06
4.14
2.85
0.47
-2.19
-4.00
-3.85
-0.96
4.72
12.44
20.51
26.58
28.24
23.92
13.58
-1.06
-16.95
-30.77
-39.96
-43.47
-41.68
-36.01
-28.16
-19.65
-11.72
-5.34
-1.24
0.29
-0.43
-2.37
-4.18
-4.68
-3.37
-0.65
2.45
4.69
5.17
3.70
0.77
-2.77
-6.11
-8.87
-11.17
-13.51
-16.38
-19.99
-24.07
-27.89
-30.34
-30.23
-26.44
-18.25
-5.66
10.30
27.51
43.07
53.96
57.92
54.23
43.96
29.58
14.09
0.15
-10.52
-17.23
-20.07
-19.68
-16.93
-12.98
-9.04
-6.19
-5.03
-5.41
-6.66
-7.81
-8.16
-7.43
-5.98
-4.66
-4.72
-7.39
-13.42
-22.42
-32.35
-39.87
-41.30
-34.10
-17.99
4.74
30.01
53.40
71.35
81.87
84.50
80.06
70.23
57.39
44.06
32.34
23.29
16.80
12.04
8.29
5.54
4.49
5.90
10.02
16.27
23.55
30.87
37.74
44.00
49.36
53.01
53.61
49.90
41.29
28.17
11.78
-6.31
-24.54
-41.49
-55.71
-65.49
-69.09
-65.37
-54.50
-38.41
-20.45
-4.44
6.64
11.59
11.01
6.70
0.55
-6.35
-13.82
-22.19
-31.62
-41.51
-50.51
-56.95
-59.43
-57.36
-51.26
-42.62
-33.51
-25.94
-21.38
-20.29
-22.13
-25.66
-29.53
-32.81
-35.22
-36.98
-38.37
-39.28
-38.91
-36.32
-30.98
-23.61
-16.49
-13.07
-16.76
-29.07
-48.15
-68.14
-80.56
-76.92
-52.20
-7.42
49.90
107.49
151.92
172.45
164.29
129.47
76.53
18.37
-30.85
-59.58
-61.98
-39.76
-1.94
38.46
67.87
76.53
61.21
25.61
-21.66
-70.44
-112.21
-141.69
-156.08
-155.26
-140.22
-111.98
-71.79
-22.36
31.16
82.13
124.77
158.01
184.52
209.50
238.10
272.55
310.79
347.09
374.66
388.49
388.04
373.72
345.83
304.69
251.34
188.47
120.27
51.68
-21.46
-94.47
-158.52
-205.99
-234.90
-248.12
-249.83
-243.27
-230.22
-211.48
-186.72
-158.34
-132.01
-113.17
-105.49
-109.21
-120.41
-131.45
-133.05
-117.38
-82.13
-33.61
15.67
52.78
68.20
57.45
23.00
-25.93
-74.70
-112.57
-132.10
-130.27
-108.46
-72.24
-29.98
11.42
49.35
84.83
120.43
157.45
189.00
208.78
218.49
217.42
200.25
165.23
114.64
54.93
-6.38
-62.72
-109.95
-148.58
-183.28
-218.90
-257.03
-295.63
-320.32
-318.79
-287.92
-236.94
-181.91
-134.90
-98.94
-70.39
-47.18
-26.80
-12.34
-7.64
-12.28
-20.89
-23.95
-12.54
17.53
59.92
101.14
125.70
125.20
106.11
76.97
47.91
27.99
23.22
34.52
60.99
97.49
136.04
167.36
182.73
178.67
158.19
130.40
107.04
98.65
108.94
133.55
161.78
180.40
179.65
155.59
109.78
47.99
-20.99
-86.71
-137.54
-162.24
-152.95
-107.47
-31.97
59.04
146.39
211.76
243.31
238.95
206.12
158.19
109.81
71.65
47.50
34.84
26.90
16.67
0.37
-21.02
-42.64
-57.47
-59.41
-46.10
-19.41
13.35
41.45
54.25
45.34
15.19
-28.42
-73.79
-110.93
-134.08
-145.30
-151.83
-161.99
-181.08
-208.97
-240.39
-267.83
-286.47
-294.16
-295.27
-297.01
-305.29
-320.83
-337.77
-345.89
-335.82
-304.93
-255.61
-197.59
-141.32
-92.95
-52.06
-13.41
28.25
80.77
128.00
162.32
175.07
163.14
130.77
87.51
43.57
5.20
-27.12
-57.89
-88.59
-118.17
-140.73
-148.38
-135.40
-101.25
-51.28
4.70
54.21
87.84
98.42
84.88
52.81
13.60
-18.85
-32.77
-22.43
10.31
59.74
117.88
177.76
233.37
278.46
306.23
311.28
293.09
257.84
217.47
183.47
161.58
149.44
138.82
121.40
94.49
63.20
37.94
29.63
44.19
80.50
131.10
185.00
230.93
259.88
266.71
250.52
214.48
164.39
107.29
49.84
-2.88
-48.08
-85.56
-117.46
-147.11
-177.09
-207.65
-235.71
-255.66
-261.44
-249.11
-218.26
-171.68
-114.06
-50.51
13.60
71.96
117.00
140.88
138.64
110.96
64.90
11.48
-38.85
-80.82
-115.97
-150.53
-190.90
-238.30
-286.61
-324.21
-339.59
-327.26
-290.46
-239.36
-185.86
-137.97
-96.38
-55.28
-6.81
52.95
120.51
185.69
236.56
265.16
270.75
259.67
242.38
228.59
222.81
222.86
221.87
212.55
190.94
157.54
116.13
71.83
28.72
-11.50
-48.49
-81.57
-108.16
-121.26
-113.96
-87.50
-52.25
-20.98
-0.38
11.94
21.05
31.34
42.90
53.67
60.10
58.39
47.26
24.96
-5.23
-35.12
-55.24
-60.48
-53.49
-45.60
-43.96
-49.64
-56.44
-57.80
-46.00
-17.37
25.69
76.60
123.79
155.77
164.90
150.24
117.43
75.91
33.90
-4.88
-41.86
-81.40
-126.18
-174.41
-219.36
-251.70
-263.16
-250.30
-215.08
-163.29
-102.12
-37.94
23.71
77.31
116.64
135.60
129.93
99.86
51.53
-3.78
-51.96
-79.96
-79.30
-48.92
4.18
65.76
118.02
144.70
135.92
91.51
21.04
-59.25
-131.50
-180.70
-198.14
-182.33
-138.16
-75.28
-5.77
57.83
105.06
129.03
127.75
103.80
63.20
13.70
-36.92
-82.07
-116.75
-137.66
-143.13
-133.33
-110.80
-81.03
-51.99
-32.72
-30.62
-48.71
-83.84
-127.04
-166.21
-190.29
-192.98
-174.47
-140.49
-99.14
-57.55
-19.54
14.55
46.45
78.24
111.06
144.73
177.72
207.84
232.95
252.25
267.05
280.27
294.85
311.48
327.25
336.08
331.20
308.10
266.35
209.47
143.62
76.18
15.02
-32.32
-60.18
-67.15
-58.05
-43.86
-38.33
-52.13
-87.68
-137.21
-185.58
-216.57
-219.32
-191.71
-139.51
-72.67
-1.18
67.03
126.00
170.36
194.87
195.04
169.16
120.28
56.17
-13.15
-78.77
-135.85
-183.71
-223.23
-253.93
-272.91
-276.66
-264.78
-242.02
-217.11
-198.55
-189.36
-184.67
-173.60
-145.12
-94.61
-27.57
41.53
95.00
119.60
112.65
82.60
45.14
16.50
7.05
18.20
44.23
77.15
111.89
148.61
190.12
236.89
283.67
319.96
334.61
321.31
281.68
224.78
163.80
111.04
75.42
62.58
74.80
110.86
164.80
224.79
276.00
305.65
305.88
276.47
224.82
162.25
99.85
45.04
-0.56
-38.14
-68.18
-92.62
-114.56
-136.73
-161.63
-191.47
-227.48
-271.48
-322.77
-375.73
-425.90
-470.74
-507.56
-533.64
-546.60
-544.72
-530.32
-506.15
-471.77
-429.95
-385.71
-342.25
-300.27
-258.42
-198.26
-115.07
-38.15
20.43
61.50
84.80
94.16
97.26
102.99
117.72
139.89
164.51
190.12
215.01
238.80
263.42
289.39
312.48
323.72
311.00
268.19
202.48
128.76
65.00
27.50
25.01
56.02
110.26
171.40
223.86
258.32
269.53
255.79
218.88
162.84
93.63
19.37
-50.26
-104.10
-130.92
-124.00
-83.48
-16.70
62.66
137.65
192.29
215.41
203.62
161.64
99.92
31.33
-32.48
-83.85
-120.39
-144.48
-161.57
-177.68
-197.32
-221.75
-248.32
-271.36
-284.05
-280.81
-259.42
-222.23
-175.64
-128.30
-88.06
-59.55
-42.62
-32.79
-23.30
-7.74
17.91
54.56
100.41
151.97
204.40
251.85
287.64
304.88
298.64
268.08
217.38
154.28
87.45
23.88
-31.90
-76.25
-105.17
-113.68
-97.83
-57.82
-0.58
60.74
110.32
134.92
128.01
90.74
30.64
-41.64
-114.96
-179.10
-225.30
-246.84
-239.89
-204.52
-145.21
-70.39
8.62
79.65
131.90
157.94
155.21
126.41
78.78
21.60
-36.48
-89.22
-133.02
-165.50
-183.90
-185.11
-167.22
-131.18
-81.57
-25.09
31.49
82.95
125.62
156.11
170.24
163.38
132.65
79.53
11.41
-59.36
-118.56
-154.14
-159.10
-132.80
-80.61
-12.19
60.25
123.69
166.12
178.69
158.36
109.66
44.65
-19.50
-65.21
-79.69
-58.72
-7.77
60.14
128.53
181.58
207.73
201.63
164.91
105.80
37.56
-24.21
-64.64
-72.96
-44.96
15.77
98.25
186.15
260.99
306.60
313.18
279.99
215.18
133.08
49.47
-23.10
-78.37
-116.75
-143.32
-165.03
-187.58
-213.73
-242.15
-268.01
-284.02
-282.62
-258.85
-212.86
-151.13
-85.71
-31.32
-0.90
-1.36
-30.72
-78.74
-130.12
-169.70
-187.35
-180.36
-152.59
-110.81
-61.20
-7.83
46.28
96.38
134.72
151.76
139.94
98.38
35.29
-33.33
-88.99
-116.83
-110.25
-71.73
-11.08
58.32
123.19
172.76
199.49
199.32
171.65
120.04
52.55
-18.79
-79.67
-116.61
-120.54
-89.35
-28.63
49.50
129.38
195.50
236.20
245.69
224.83
179.41
117.47
47.22
-24.31
-91.00
-147.31
-188.29
-210.42
-212.66
-196.58
-165.61
-123.81
-75.50
-25.76
18.33
47.66
53.06
29.24
-21.24
-87.01
-150.63
-194.41
-206.00
-182.07
-128.52
-58.03
13.36
69.80
98.39
91.90
50.61
-16.87
-94.84
-164.24
-207.73
-214.89
-185.36
-128.60
-59.95
5.37
57.37
94.04
120.32
144.42
173.52
210.63
253.48
295.74
329.70
348.79
349.34
331.31
298.38
257.27
216.22
182.43
158.72
143.30
130.76
114.56
89.55
54.02
10.61
-34.80
-75.38
-106.92
-127.33
-136.37
-135.45
-127.80
-118.28
-111.85
-112.13
-120.81
-139.09
-166.04
-198.39
-231.11
-258.91
-276.77
-280.21
-265.93
-222.61
-149.14
-59.12
23.73
79.22
98.75
84.87
47.84
2.01
-38.71
-67.29
-78.99
-71.28
-43.91
0.53
56.77
117.89
176.06
220.68
241.27
233.71
203.34
164.67
136.25
133.21
161.02
213.04
272.69
319.13
336.20
317.64
268.32
200.70
129.25
65.39
14.87
-22.34
-50.14
-72.72
-93.00
-112.51
-132.77
-156.43
-186.36
-223.65
-265.53
-305.25
-333.87
-343.91
-332.84
-304.19
-265.62
-224.56
-184.89
-146.41
-107.10
-66.88
-30.27
-5.64
-1.61
-21.58
-60.54
-105.48
-139.84
-149.51
-127.63
-76.09
-3.05
80.79
166.35
247.13
317.83
372.36
403.78
406.68
380.10
329.37
264.01
195.11
130.64
73.43
22.24
-24.91
-67.24
-101.44
-124.37
-138.44
-149.96
-166.71
-193.63
-229.98
-270.96
-309.94
-342.25
-366.33
-384.37
-396.45
-399.25
-387.81
-358.93
-314.78
-261.44
-206.36
-144.65
-79.70
-19.31
28.17
56.33
69.40
72.78
72.34
73.15
80.40
96.44
122.43
156.97
194.16
224.42
236.54
223.99
188.47
140.46
93.84
62.13
53.43
67.99
100.01
140.48
181.47
217.17
242.73
252.11
239.94
203.56
144.97
71.05
-9.26
-87.71
-159.56
-223.66
-280.79
-329.92
-366.74
-385.22
-380.78
-353.55
-308.77
-254.76
-199.36
-147.45
-99.71
-54.18
-8.97
35.97
78.68
116.72
149.28
178.28
207.62
241.46
281.64
326.22
369.53
404.34
424.37
426.57
411.92
384.69
351.33
318.53
292.00
275.77
271.44
277.51
289.03
298.34
296.92
279.41
245.85
202.42
159.27
126.02
107.46
101.35
99.61
91.93
71.35
36.28
-9.43
-59.05
-106.49
-148.14
-183.11
-209.55
-229.45
-242.69
-249.47
-251.48
-251.99
-254.48
-260.21
-266.56
-267.32
-255.48
-225.94
-179.00
-120.83
-61.33
-10.58
24.35
40.88
40.08
24.31
-4.08
-43.91
-93.98
-151.12
-208.88
-257.98
-288.58
-293.79
-272.62
-230.68
-178.79
-129.35
-92.52
-73.59
-72.45
-84.60
-103.18
-120.84
-131.17
-129.77
-115.04
-88.51
-54.46
-18.75
13.07
37.17
52.27
59.28
60.09
56.48
49.53
40.00
28.86
17.84
9.09
4.64
5.52
11.63
22.16
36.18
53.15
72.60
93.73
114.76
133.03
145.67
150.64
147.64
138.25
125.36
112.19
101.19
93.23
87.57
82.13
74.39
62.34
45.48
25.35
5.54
-9.25
-14.73
-8.80
7.33
28.95
49.16
61.24
61.01
48.43
27.48
4.54
-14.14
-24.59
-26.24
-21.53
-14.52
-9.16
-7.91
-11.21
-17.65
-24.80
-30.25
-32.36
-30.69
-25.94
-19.46
-12.72
-6.81
-2.46
-0.19
-0.61
-4.39
-11.87
-22.67
-35.41
-48.06
-58.66
-66.13
-70.55
-72.90
-74.33
-75.49
-76.22
-75.78
-73.43
-68.87
-62.47
-55.06
-47.47
-40.30
-33.78
-27.94
-22.78
-18.42
-14.98
-12.50
-10.73
-9.18
-7.26
-4.49
-0.64
4.32
10.39
17.61
26.07
35.60
45.55
54.74
61.74
65.47
65.56
62.40
56.66
48.66
38.01
23.84
5.44
-16.93
-41.68
-66.23
-87.72
-103.96
-114.04
-118.43
-118.63
-116.58
-114.01
-111.89
-110.31
-108.49
-105.20
-99.35
-90.56
-79.33
-66.82
-54.17
-41.91
-29.81
-17.12
-3.25
11.57
26.13
38.58
47.19
51.12
50.73
47.29
42.32
36.98
31.65
26.14
20.15
13.81
7.91
3.90
3.54
8.86
21.99
44.41
75.89
113.13
149.20
174.50
179.60
159.00
114.16
54.19
-6.71
-53.71
-76.09
-70.09
-38.76
10.46
69.05
130.10
189.55
246.02
299.51
349.55
393.57
426.37
441.18
431.98
396.22
336.52
260.62
179.35
103.40
40.51
-6.01
-36.97
-55.91
-67.52
-76.97
-89.30
-108.77
-137.36
-173.15
-209.55
-236.39
-243.40
-224.75
-183.17
-129.74
-80.18
-48.13
-39.15
-48.44
-63.66
-70.13
-57.29
-22.65
29.23
89.15
146.46
191.93
219.06
224.51
208.59
174.26
125.68
69.26
12.80
-34.90
-64.13
-66.12
-36.27
23.73
103.62
185.55
251.14
286.95
288.81
262.84
221.64
177.78
139.34
114.89
101.16
93.64
88.42
83.15
77.87
72.14
61.86
45.96
20.90
-16.94
-68.41
-132.14
-205.15
-279.97
-348.53
-406.23
-443.84
-460.69
-461.91
-455.56
-449.89
-451.74
-460.28
-473.00
-489.89
-501.79
-505.67
-499.19
-480.47
-448.72
-407.25
-357.33
-278.50
-211.15
-151.99
-101.89
-59.94
-24.62
17.18
47.93
69.30
79.61
72.95
53.57
20.90
-15.99
-44.97
-55.34
-47.21
-26.20
-3.38
6.82
12.95
22.70
42.50
72.90
107.96
135.62
145.37
130.40
92.09
45.32
4.53
-18.65
-20.31
-4.12
21.40
50.23
78.65
105.87
132.42
153.54
163.87
161.31
149.63
137.36
134.37
146.75
177.23
223.45
277.21
329.31
372.60
402.86
419.05
422.47
416.83
411.39
413.91
426.15
443.00
455.43
454.09
433.95
394.67
320.38
214.63
98.12
-3.53
-75.94
-117.04
-138.79
-149.27
-152.63
-150.57
-141.00
-124.00
-104.43
-91.32
-93.75
-116.66
-156.24
-201.42
-237.52
-250.27
-235.41
-201.76
-166.43
-145.35
-145.76
-163.37
-187.95
-210.84
-228.72
-245.13
-266.54
-296.19
-329.26
-353.80
-355.81
-327.09
-269.93
-195.71
-118.99
-51.54
1.26
41.03
73.11
103.21
134.09
164.65
191.32
211.97
226.13
233.55
233.25
223.96
201.71
167.96
133.84
103.39
77.03
54.40
33.57
14.41
-5.10
-20.73
-27.50
-24.32
-17.26
-15.25
-25.79
-50.66
-84.14
-114.09
-127.92
-120.96
-100.02
-80.67
-76.91
-94.47
-129.81
-173.81
-214.87
-242.25
-249.50
-234.89
-200.66
-149.80
-86.19
-11.22
61.96
117.06
145.72
149.95
140.53
125.28
110.45
101.88
103.40
113.48
129.32
148.42
167.27
181.14
185.34
173.52
145.51
108.20
74.31
45.49
18.38
-10.81
-43.20
-76.04
-101.87
-110.64
-95.26
-56.98
-6.03
42.27
71.42
69.39
33.86
-25.35
-89.05
-137.20
-157.74
-150.86
-126.67
-100.48
-86.22
-91.36
-115.26
-151.08
-190.22
-225.77
-252.95
-267.39
-264.70
-241.21
-194.99
-127.12
-42.34
50.52
139.14
209.76
251.29
259.16
237.97
200.78
165.00
145.93
150.98
177.38
214.47
249.07
271.32
277.52
269.72
252.65
230.20
203.15
169.61
127.12
75.63
19.59
-32.21
-69.13
-82.43
-69.17
-33.80
12.67
56.18
84.51
91.96
81.64
64.16
52.51
55.65
73.78
98.02
114.90
113.48
90.93
53.84
14.24
-17.14
-36.28
-46.93
-57.56
-76.16
-106.29
-145.79
-188.03
-224.44
-247.08
-250.59
-233.03
-196.47
-146.67
-91.29
-37.88
8.10
43.70
67.71
78.91
75.38
55.15
17.93
-33.48
-93.36
-154.81
-211.93
-260.93
-299.99
-327.83
-342.57
-341.85
-324.17
-290.47
-244.58
-191.98
-137.78
-85.92
-38.87
1.35
32.20
50.77
54.83
44.50
23.32
-1.77
-22.77
-31.98
-24.14
1.99
43.61
94.74
148.26
198.14
241.27
275.89
301.90
318.57
323.76
314.80
290.18
251.08
201.39
146.88
90.45
33.54
-23.96
-81.38
-135.05
-178.13
-203.02
-204.89
-183.31
-145.26
-99.18
-52.46
-8.98
31.40
71.16
112.55
148.43
183.70
211.51
225.61
221.79
199.76
163.56
120.12
76.23
35.30
-2.91
-44.21
-92.52
-146.61
-198.24
-234.35
-242.45
-216.51
-160.34
-85.74
-10.21
51.80
93.02
114.51
123.09
126.71
130.09
133.08
132.30
122.79
102.64
74.09
43.06
17.05
2.91
4.67
23.03
55.55
96.52
138.66
174.04
196.12
200.63
186.39
154.79
108.78
51.73
-13.21
-82.65
-152.19
-215.88
-266.46
-296.47
-300.46
-277.10
-230.59
-170.48
-109.83
-61.67
-35.17
-32.62
-49.04
-74.35
-97.46
-110.33
-109.87
-97.31
-75.33
-45.73
-8.87
34.31
79.76
119.17
142.21
140.50
111.20
58.84
-6.04
-70.45
-122.72
-154.95
-164.18
-151.94
-122.95
-84.28
-43.33
-5.65
26.78
55.84
85.30
118.33
151.76
180.37
196.88
195.88
176.26
141.39
97.27
50.29
6.20
-29.79
-51.51
-52.62
-28.33
21.43
89.76
163.06
224.73
260.66
263.84
236.35
186.88
126.62
64.62
5.83
-48.43
-98.16
-142.51
-179.33
-205.70
-219.60
-220.24
-208.00
-184.29
-151.80
-115.50
-82.43
-60.28
-54.69
-67.21
-95.03
-132.90
-175.67
-219.24
-260.45
-294.34
-313.53
-310.12
-279.70
-224.19
-152.12
-75.36
-4.55
52.34
91.26
109.88
106.89
82.99
43.20
-2.57
-42.36
-66.82
-76.17
-78.10
-83.63
-99.77
-124.48
-147.25
-155.23
-140.57
-103.83
-55.55
-7.40
32.97
64.92
93.66
125.82
165.30
204.91
246.45
281.23
302.01
304.26
287.95
257.85
222.44
191.20
171.68
168.29
179.05
200.15
227.17
256.47
285.07
309.25
323.66
321.83
299.05
252.86
186.99
109.72
31.39
-38.79
-95.47
-137.88
-168.78
-192.18
-213.03
-234.99
-260.85
-292.00
-327.57
-363.64
-393.52
-409.58
-406.02
-381.81
-340.48
-289.23
-235.79
-185.26
-139.00
-95.25
-51.14
-4.76
44.85
98.62
156.34
216.57
276.29
330.44
372.65
397.29
400.57
383.87
354.33
319.73
285.71
254.31
223.64
189.54
148.33
97.58
39.14
-20.13
-74.86
-122.47
-162.35
-195.55
-224.07
-250.23
-278.10
-309.38
-340.16
-365.96
-381.75
-382.19
-364.34
-329.65
-271.98
-198.76
-137.51
-94.41
-63.11
-37.70
-12.95
14.05
44.08
76.69
109.37
141.03
174.58
210.43
246.04
277.77
301.62
314.69
315.77
303.43
277.83
243.23
203.53
161.46
118.94
76.64
34.25
-9.24
-56.52
-109.70
-166.08
-219.61
-262.05
-284.83
-282.22
-253.40
-203.07
-135.62
-65.05
-8.40
23.84
33.52
30.56
24.17
18.53
14.93
9.66
0.26
-10.77
-17.39
-13.29
5.71
40.31
87.75
144.36
204.03
258.71
301.05
326.13
332.09
320.81
295.57
261.61
224.73
187.36
148.90
108.76
68.52
31.91
4.28
-12.63
-19.35
-18.63
-17.84
-26.37
-51.52
-95.51
-154.97
-221.20
-287.38
-347.07
-381.67
-376.68
-330.37
-256.05
-173.31
-107.14
-57.00
-20.63
3.51
16.48
20.45
17.03
9.90
3.57
0.15
-1.25
-8.98
-29.55
-62.56
-102.25
-140.48
-170.41
-189.69
-201.36
-198.67
-182.57
-156.20
-122.25
-83.06
-41.82
-2.63
30.44
55.08
72.69
83.70
90.04
94.17
97.27
98.85
97.74
93.29
86.23
78.74
70.92
63.06
55.27
46.23
33.21
13.78
-11.93
-39.91
-59.45
-62.72
-46.94
-15.85
21.26
53.28
71.74
74.08
63.36
46.21
28.27
12.86
1.45
-5.44
-7.30
-3.26
6.38
18.86
28.69
28.78
14.24
-13.14
-44.08
-65.39
-66.82
-46.54
-12.36
22.57
46.61
55.10
53.00
51.28
60.00
80.30
105.18
122.49
121.39
98.02
55.79
4.28
-46.06
-88.25
-120.51
-144.80
-162.72
-172.99
-167.67
-143.49
-105.82
-66.56
-36.16
-16.10
-3.89
4.87
12.35
22.61
33.92
43.25
48.93
53.18
61.93
82.17
117.97
167.10
220.76
265.13
287.94
283.36
253.88
207.21
151.80
92.57
30.72
-32.63
-93.61
-143.50
-171.13
-167.02
-128.96
-63.67
13.57
83.81
131.01
146.13
128.92
86.21
29.10
-33.40
-86.97
-118.62
-124.53
-111.19
-88.87
-64.75
-43.25
-22.33
-1.58
17.15
29.10
28.98
13.68
-16.41
-56.84
-101.36
-143.94
-180.66
-208.13
-223.31
-223.09
-205.18
-170.01
-122.20
-70.27
-23.37
11.65
32.98
42.58
43.93
40.12
33.19
24.54
15.40
7.50
2.38
0.87
2.18
3.97
3.62
-0.58
-8.29
-17.41
-24.92
-28.31
-26.53
-20.48
-12.72
-6.27
-3.24
-3.68
-5.49
-5.30
-0.04
11.64
28.69
48.08
65.66
77.64
82.07
79.32
71.83
63.16
56.98
55.75
59.53
65.04
65.85
54.18
24.14
-25.22
-88.35
-154.12
-209.26
-241.64
-243.64
-215.71
-165.98
-106.62
-49.09
-0.49
37.61
67.82
94.50
121.21
149.36
178.10
204.86
226.01
237.49
235.81
219.37
189.48
150.58
109.01
71.39
42.69
24.97
17.35
16.79
19.12
20.14
16.55
6.70
-8.59
-25.88
-40.02
-45.92
-40.49
-24.06
-0.23
25.34
46.98
60.77
65.29
61.33
50.91
36.33
19.51
1.92
-15.34
-31.33
-45.31
-56.71
-65.26
-70.98
-74.06
-74.77
-73.38
-70.20
-65.64
-60.11
-53.83
-46.57
-37.45
-25.14
-8.47
12.79
37.24
61.79
82.21
94.45
96.07
87.15
70.41
50.23
31.21
16.79
8.50
6.12
8.26
13.32
20.02
27.47
34.95
41.64
46.63
49.05
48.58
45.56
40.86
35.54
30.42
25.87
21.77
17.63
12.57
5.39
-5.46
-21.45
-43.27
-70.27
-100.25
-130.18
-157.31
-180.36
-199.62
-216.13
-230.06
-239.52
-240.64
-229.30
-203.37
-164.56
-118.49
-73.06
-36.04
-12.94
-6.06
-14.45
-34.59
-60.82
-85.99
-102.33
-102.96
-83.65
-44.12
11.82
77.44
145.03
207.88
261.26
302.51
330.30
343.85
342.75
327.36
299.61
263.60
225.40
191.36
166.13
150.76
141.89
133.23
117.78
90.32
48.89
-4.92
-66.54
-128.68
-181.73
-215.27
-221.03
-196.93
-150.09
-96.32
-55.29
-42.80
-63.77
-109.82
-162.71
-201.96
-212.79
-190.41
-139.74
-71.46
2.45
71.83
129.10
169.05
188.61
187.18
167.39
134.90
97.04
60.88
31.45
11.40
1.96
4.16
19.06
46.65
83.89
124.04
157.36
174.06
167.66
137.20
86.98
24.24
-43.56
-110.42
-171.92
-224.64
-265.84
-294.19
-311.12
-321.49
-332.53
-350.76
-378.56
-412.14
-442.46
-458.67
-452.54
-421.81
-370.69
-307.84
-242.71
-182.43
-130.46
-86.98
-50.47
-19.17
8.14
32.95
57.44
84.69
117.64
157.61
202.86
248.26
286.24
309.14
311.97
294.13
259.79
216.46
172.66
135.68
110.11
97.57
97.10
105.98
120.47
136.51
150.49
159.60
162.15
157.38
145.13
125.90
101.02
73.02
45.77
23.81
10.99
8.98
16.61
30.10
44.51
55.35
59.84
57.41
49.48
38.75
28.40
21.26
19.20
22.72
30.85
41.41
51.79
59.45
62.48
59.69
50.50
34.91
13.71
-11.73
-39.92
-69.95
-101.58
-134.70
-168.12
-198.60
-221.02
-229.70
-220.49
-192.59
-148.98
-95.50
-39.05
14.27
60.21
96.48
122.43
138.79
147.25
150.64
152.56
156.78
166.22
181.80
201.27
218.86
226.73
217.92
190.16
148.33
104.26
73.04
67.13
90.84
137.99
193.92
240.92
264.95
259.86
227.89
176.66
114.96
50.15
-11.74
-64.14
-98.83
-107.40
-85.33
-35.98
28.51
90.32
132.55
145.58
130.12
95.11
52.62
12.14
-22.70
-53.61
-84.72
-118.76
-154.76
-188.42
-214.55
-230.04
-235.97
-237.52
-241.56
-253.68
-276.13
-307.48
-344.04
-381.35
-415.26
-442.44
-460.48
-468.12
-465.56
-454.29
-436.39
-413.44
-385.68
-352.21
-312.28
-266.61
-217.70
-169.26
-124.61
-85.80
-53.32
-26.40
-3.64
16.82
37.75
62.94
95.96
138.39
188.26
238.95
280.55
303.00
299.96
271.97
227.24
179.16
141.79
124.67
129.36
149.17
171.74
183.72
175.42
143.79
92.91
32.21
-26.76
-73.56
-100.89
-105.20
-86.03
-45.52
11.61
78.05
144.30
200.14
237.12
251.08
243.35
219.91
189.02
158.33
132.93
114.86
103.43
96.19
89.74
80.33
64.41
39.41
4.19
-40.74
-93.78
-153.26
-216.97
-281.33
-340.21
-385.25
-407.87
-402.69
-369.90
-315.59
-250.43
-185.28
-127.74
-79.98
-39.48
-2.08
34.73
70.32
101.63
123.95
133.82
129.54
111.79
82.66
44.32
-1.75
-54.11
-103.86
-140.10
-153.20
-141.00
-109.58
-69.37
-29.96
2.83
27.36
45.07
56.01
62.34
64.16
60.43
49.73
30.46
1.36
-37.45
-83.42
-132.35
-176.55
-208.84
-224.43
-222.75
-207.88
-186.75
-165.98
-149.22
-136.84
-126.58
-116.13
-103.91
-89.04
-70.77
-48.08
-20.01
13.49
50.57
87.95
121.57
148.40
167.68
180.90
190.80
200.13
210.61
222.58
235.35
247.67
258.45
267.53
275.68
284.52
296.36
313.86
339.52
374.93
419.61
470.45
521.57
564.99
592.40
597.34
577.08
533.35
471.86
400.38
326.79
257.46
196.30
144.53
101.39
65.28
35.17
11.35
-4.77
-12.02
-11.07
-5.70
-2.17
-7.03
-24.76
-55.74
-96.63
-142.55
-190.01
-237.87
-286.09
-332.98
-373.25
-399.55
-406.19
-393.87
-371.29
-352.07
-347.97
-362.41
-388.35
-412.18
-421.23
-410.25
-382.58
-345.84
-305.39
-260.27
-204.89
-135.37
-55.69
21.03
77.45
100.74
89.84
57.01
22.51
5.78
17.93
58.89
119.48
186.50
247.69
294.46
322.39
329.73
316.46
284.00
236.26
180.80
128.79
93.21
84.51
106.20
152.17
207.53
253.56
274.60
263.37
222.71
162.57
94.60
27.22
-35.87
-94.50
-149.23
-199.41
-243.35
-280.09
-311.20
-340.97
-374.59
-414.60
-458.27
-497.19
-519.87
-516.47
-483.32
-424.84
-351.88
-277.24
-210.69
-156.01
-111.00
-70.17
-28.34
17.38
67.33
120.47
175.59
231.03
283.53
327.29
354.74
359.17
338.53
297.61
246.83
198.13
159.61
132.41
111.21
88.26
57.92
19.24
-24.59
-69.53
-114.00
-160.16
-212.17
-272.67
-339.69
-405.76
-460.00
-492.25
-497.27
-476.68
-438.11
-391.59
-345.29
-302.97
-264.09
-226.21
-187.89
-150.46
-117.36
-91.95
-75.09
-64.22
-54.34
-40.35
-19.15
9.26
42.12
75.81
107.72
137.48
166.98
199.30
237.35
282.92
336.28
396.04
458.91
519.40
569.95
602.40
610.37
591.85
550.39
494.01
432.31
373.13
320.42
274.25
232.61
193.54
155.99
119.55
83.34
45.69
4.91
-39.26
-84.52
-125.98
-157.60
-174.34
-174.04
-158.24
-131.61
-100.22
-69.89
-44.67
-26.08
-13.26
-3.96
4.32
13.30
23.50
34.42
44.81
53.50
59.85
63.82
65.42
64.28
59.68
51.24
39.82
27.17
15.41
6.20
-0.02
-4.32
-8.61
-14.65
-22.81
-31.90
-40.70
-48.82
-56.50
-63.83
-70.12
-73.71
-72.83
-66.55
-55.86
-45.07
-40.72
-48.80
-72.13
-109.57
-156.77
-208.20
-258.69
-297.22
-313.55
-302.49
-266.76
-215.04
-157.18
-100.30
-48.39
-3.20
32.59
59.10
75.55
81.52
78.93
72.26
67.52
70.24
83.79
109.36
144.10
182.68
220.39
254.81
285.01
309.29
323.69
322.82
302.64
262.73
207.50
145.12
84.37
31.29
-12.67
-49.82
-84.24
-119.05
-154.79
-188.80
-215.38
-227.42
-218.96
-188.00
-138.19
-78.32
-19.53
28.04
57.91
68.04
59.27
32.98
-10.09
-68.75
-138.96
-212.01
-275.38
-316.27
-326.25
-304.53
-258.21
-199.32
-140.01
-88.52
-47.67
-16.15
8.50
27.58
40.38
44.86
39.43
24.08
0.42
-28.93
-61.25
-94.08
-125.16
-151.70
-170.70
-179.46
-176.91
-164.44
-145.47
-123.56
-100.21
-73.89
-41.14
0.16
47.87
94.48
129.32
142.54
129.30
91.92
39.43
-14.94
-57.02
-74.48
-59.30
-9.89
67.51
159.04
245.76
308.42
332.83
314.06
257.73
177.90
92.84
20.39
-26.39
-41.72
-27.72
6.72
48.86
85.81
107.94
111.04
96.57
70.01
38.27
7.33
-18.96
-39.30
-54.17
-64.86
-72.43
-77.00
-77.71
-73.10
-61.96
-44.19
-21.24
3.69
26.06
40.86
43.56
31.45
4.86
-31.93
-70.73
-100.68
-110.76
-93.17
-46.09
24.72
106.74
183.84
241.17
269.94
269.96
248.94
218.42
189.01
166.82
152.97
145.67
143.45
146.71
156.70
173.12
191.75
205.46
207.06
192.85
164.34
127.47
90.03
57.88
33.53
15.06
-0.95
-17.50
-35.81
-55.44
-75.52
-95.11
-114.80
-135.14
-157.77
-182.91
-209.40
-235.46
-260.00
-283.32
-305.59
-327.61
-347.86
-365.13
-376.99
-381.54
-378.83
-371.60
-364.88
-363.03
-370.58
-371.31
-350.47
-298.88
-218.81
-122.32
-24.39
54.72
112.80
149.77
167.14
166.30
151.86
132.19
116.83
114.17
128.14
156.70
189.13
211.49
209.96
177.34
115.27
33.86
-50.96
-121.23
-161.38
-164.24
-130.53
-68.59
9.60
91.20
164.50
215.84
236.78
228.38
198.17
156.59
113.07
75.45
48.51
34.52
31.31
35.40
43.19
51.30
58.21
64.98
75.10
92.30
117.92
151.02
187.88
221.54
242.77
242.89
217.06
166.43
97.54
21.36
-49.96
-106.52
-143.75
-163.25
-171.00
-174.31
-174.65
-172.34
-165.48
-151.70
-130.29
-103.59
-75.58
-49.64
-26.65
-5.31
15.33
35.55
54.04
68.51
76.87
79.23
77.95
76.63
78.39
82.37
85.77
84.43
74.49
53.37
22.10
-15.11
-52.39
-84.50
-109.56
-127.36
-139.31
-147.85
-156.62
-168.01
-182.28
-197.82
-206.78
-203.81
-184.87
-149.07
-94.54
-30.05
29.26
69.90
87.00
84.84
71.29
53.94
36.84
20.71
4.09
-13.36
-29.82
-42.73
-50.74
-55.22
-58.39
-62.82
-70.11
-80.81
-93.50
-105.57
-113.89
-116.76
-114.81
-109.57
-103.20
-97.59
-94.22
-93.30
-93.87
-94.62
-94.81
-94.77
-94.79
-95.43
-96.96
-99.34
-101.66
-102.28
-99.12
-90.16
-77.40
-62.20
-46.24
-31.28
-18.79
-9.54
-3.35
0.75
4.09
8.00
14.09
23.47
36.73
53.91
74.37
96.99
120.40
143.45
165.62
187.69
210.77
235.65
261.96
287.72
309.75
324.65
330.05
325.29
311.83
292.23
269.22
245.01
220.98
197.82
175.93
155.62
137.10
120.57
105.80
92.30
79.48
66.94
54.61
42.78
31.87
22.22
14.00
7.06
1.16
-4.00
-8.57
-12.58
-15.93
-18.53
-20.38
-21.63
-22.55
-23.43
-24.42
-25.54
-26.61
-27.41
-27.79
-27.76
-27.47
-27.13
-26.86
-26.62
-26.23
-25.45
-24.20
-22.56
-20.84
-19.49
-18.99
-19.63
-21.43
-24.12
-27.20
-30.12
-32.50
-34.26
-35.63
-37.04
-38.91
-41.31
-43.86
-45.62
-45.52
-42.88
-38.00
-32.34
-28.23
-27.99
-32.89
-42.51
-54.79
-66.82
-76.01
-81.00
-81.91
-79.96
-76.66
-73.06
-69.38
-65.14
-59.54
-52.02
-42.49
-31.46
-19.79
-8.44
1.54
9.05
12.84
11.92
6.22
-2.79
-12.21
-18.79
-20.92
-19.87
-19.62
-24.69
-37.43
-55.94
-74.31
-84.96
-81.80
-62.40
-28.27
16.33
65.87
114.56
156.36
184.92
194.72
183.14
152.74
111.48
70.43
39.47
23.22
19.79
22.74
25.23
23.77
19.41
16.09
17.39
23.97
33.35
41.69
46.32
47.15
46.49
47.39
51.99
60.85
73.12
87.02
100.26
110.36
114.88
111.85
100.21
80.24
53.52
22.76
-8.61
-37.01
-59.48
-74.37
-81.78
-83.44
-81.99
-79.92
-78.67
-78.24
-77.63
-75.56
-71.18
-64.57
-56.50
-48.08
-40.42
-34.49
-30.90
-29.87
-31.07
-33.69
-36.64
-38.90
-39.82
-39.28
-37.56
-35.10
-32.32
-29.50
-26.87
-24.57
-22.73
-21.36
-20.31
-19.31
-18.06
-16.48
-14.78
-13.38
-12.77
-13.20
-14.53
-16.30
-17.90
-18.84
-18.92
-18.22
-16.96
-15.42
-13.77
-12.07
-10.35
-8.59
-6.84
-5.18
-3.75
-2.74
-2.33
-2.53
-3.15
-3.78
-3.90
-3.15
-1.44
1.01
3.75
6.31
8.34
9.67
10.23
10.06
9.21
7.82
6.14
4.47
3.08
2.13
1.66
1.61
1.91
2.55
3.49
4.63
5.77
6.64
7.06
7.04
6.78
6.65
6.98
7.90
9.31
10.85
12.15
12.92
13.04
12.59
11.77
10.82
9.93
9.24
8.77
8.54
8.48
8.46
8.37
8.12
7.69
7.17
6.80
6.88
7.60
8.92
10.37
11.11
10.08
6.30
-0.67
-10.55
-22.27
-34.25
-44.79
-52.48
-56.52
-56.81
-53.85
-48.56
-42.02
-35.30
-29.28
-24.46
-20.95
-18.49
-16.58
-14.64
-12.14
-8.75
-4.43
0.51
5.45
9.58
12.06
12.28
10.12
5.93
0.51
-5.18
-10.23
-14.03
-16.27
-16.85
-15.81
-13.30
-9.55
-4.93
-0.01
4.58
8.29
10.79
12.07
12.36
12.01
11.23
10.15
8.75
7.11
5.44
4.05
3.24
3.20
3.88
5.10
6.60
8.12
9.45
10.40
10.81
10.55
9.59
8.09
6.37
4.90
4.13
4.40
5.77
7.99
10.58
13.00
14.84
15.90
16.28
16.20
15.91
15.52
15.02
14.33
13.46
12.50
11.60
10.86
10.29
9.76
9.10
8.15
6.93
5.53
4.13
2.90
1.92
1.20
0.71
0.44
0.43
0.77
1.50
2.61
3.96
5.38
6.65
7.65
8.34
8.76
8.98
9.03
8.83
8.27
7.19
5.51
3.28
0.69
-1.97
-4.35
-6.21
-7.44
-8.10
-8.35
-8.43
-8.44
-8.47
-8.51
-8.59
-8.75
-9.05
-9.46
-9.84
-9.92
-9.42
-8.24
-6.49
-4.50
-2.62
-1.10
0.03
0.86
1.57
2.26
2.90
3.43
3.80
4.02
4.17
4.38
4.73
5.23
5.77
6.20
6.33
6.03
5.23
4.02
2.57
1.02
-0.54
-2.10
-3.64
-5.05
-6.16
-6.71
-6.55
-5.73
-4.53
-3.33
-2.40
-1.84
-1.50
-1.16
-0.65
0.06
0.86
1.64
2.31
2.92
3.48
3.99
4.35
4.47
4.31
3.96
3.62
3.49
3.68
4.09
4.54
4.78
4.70
4.34
3.90
3.60
3.64
4.10
4.97
6.16
7.52
8.85
9.90
10.48
10.52
10.24
10.07
10.59
12.22
15.05
18.72
22.49
25.53
27.11
26.87
24.88
21.55
17.51
13.42
9.81
7.02
5.22
4.38
4.36
4.97
5.94
7.02
7.97
8.57
8.68
8.21
7.11
5.33
2.84
-0.37
-4.24
-8.58
-13.04
-17.18
-20.50
-22.59
-23.24
-22.50
-20.65
-18.10
-15.32
-12.74
-10.73
-9.57
-9.42
-10.25
-11.87
-13.97
-16.13
-18.00
-19.37
-20.09
-20.15
-19.55
-18.35
-16.67
-14.71
-12.68
-10.77
-9.05
-7.55
-6.26
-5.19
-4.38
-3.84
-3.57
-3.55
-3.67
-3.88
-4.06
-4.12
-3.90
-3.29
-2.21
-0.73
0.96
2.59
3.86
4.61
4.78
4.51
4.08
3.75
3.75
4.13
4.85
5.78
6.87
8.12
9.52
10.94
12.08
12.48
11.89
10.36
8.34
6.45
5.19
4.72
4.85
5.14
5.07
4.12
1.78
-2.44
-8.76
-16.91
-25.92
-34.17
-39.91
-41.78
-39.37
-33.26
-24.78
-15.42
-6.38
1.64
8.39
13.80
17.83
20.38
21.41
21.07
19.78
18.10
16.55
15.36
14.43
13.39
11.93
9.98
7.84
6.05
5.14
5.44
6.91
9.16
11.60
13.70
15.13
15.93
16.42
17.03
18.10
19.74
21.75
23.75
25.40
26.46
26.98
27.22
27.55
28.42
30.23
33.20
37.01
40.61
42.25
40.11
33.11
21.69
7.99
-4.80
-13.62
-16.71
-14.19
-7.76
0.16
7.36
12.36
14.48
13.50
9.61
3.27
-4.57
-12.54
-19.15
-23.23
-24.20
-22.08
-17.48
-11.22
-4.11
3.17
10.13
16.61
22.77
29.10
36.18
44.37
53.50
62.80
71.15
77.60
81.81
84.30
86.11
88.55
92.83
99.71
109.32
121.10
134.06
147.09
159.20
169.60
178.26
186.12
195.02
207.22
224.40
246.66
271.98
296.15
313.18
317.80
307.12
281.76
245.37
203.02
159.46
118.14
80.48
45.04
10.34
-23.83
-55.86
-83.12
-103.63
-116.98
-123.88
-126.74
-131.45
-142.68
-162.18
-187.95
-215.57
-241.02
-262.16
-277.87
-289.95
-305.95
-332.26
-371.99
-423.72
-482.69
-543.48
-600.97
-648.77
-683.85
-712.20
-742.05
-781.32
-834.01
-899.02
-971.85
-1045.87
-1111.77
-1119.55
-1035.06
-851.35
-597.49
-322.45
-68.59
141.55
290.04
392.38
461.43
499.31
507.67
492.51
465.99
444.77
440.44
456.28
489.80
530.85
563.96
577.83
567.98
536.87
490.52
433.99
370.27
303.27
235.78
169.86
109.78
60.88
28.09
13.95
17.24
34.23
61.68
95.55
130.91
162.92
186.54
197.37
192.70
172.32
139.10
98.91
57.91
20.96
-8.79
-30.04
-42.85
-47.94
-46.47
-39.78
-29.22
-16.71
-4.43
5.41
10.98
11.23
6.27
-2.70
-13.59
-24.07
-32.11
-36.45
-36.91
-34.21
-29.66
-24.58
-19.91
-15.99
-12.76
-10.02
-7.79
-6.44
-6.37
-7.79
-10.36
-13.18
-15.06
-15.06
-12.75
-8.41
-2.89
2.84
7.97
12.09
15.21
17.62
19.58
21.26
22.65
23.67
24.39
24.99
25.74
26.73
27.77
28.40
28.22
27.11
25.52
24.16
23.67
24.22
25.35
26.24
26.08
24.49
21.67
18.20
14.83
12.09
10.26
9.25
8.73
8.17
6.95
4.58
0.91
-3.72
-8.51
-12.53
-15.12
-16.18
-16.34
-16.63
-18.11
-21.23
-25.55
-29.80
-32.23
-31.46
-27.28
-21.08
-15.83
-15.14
-21.80
-36.31
-56.04
-75.48
-87.60
-85.95
-66.71
-30.01
19.77
74.83
125.69
163.25
180.95
176.19
150.83
110.44
62.40
13.62
-31.18
-70.03
-102.89
-130.00
-150.55
-162.14
-161.57
-146.36
-116.26
-74.09
-25.44
22.60
63.19
91.33
104.79
104.08
91.78
71.44
46.62
20.51
-3.98
-23.96
-36.60
-39.73
-32.74
-17.22
3.19
23.86
40.77
51.79
57.02
58.24
57.57
56.28
54.25
50.37
43.43
33.19
20.82
8.58
-0.98
-6.08
-6.43
-3.36
0.65
2.69
0.24
-8.25
-22.90
-42.05
-62.18
-78.39
-85.44
-79.52
-59.82
-29.32
5.74
37.71
59.96
68.74
63.90
48.18
25.63
0.17
-25.21
-48.41
-67.68
-81.09
-86.65
-82.82
-69.31
-47.70
-21.36
5.37
28.31
44.64
53.45
55.61
52.96
47.48
40.54
32.74
24.27
15.35
6.52
-1.24
-6.91
-9.84
-10.04
-8.17
-5.27
-2.28
0.21
2.12
3.80
5.77
8.42
11.85
15.75
19.62
22.92
25.28
26.69
27.49
28.18
29.17
30.48
31.77
32.55
32.55
31.77
30.69
30.06
30.55
32.35
34.94
37.38
38.86
39.36
39.47
40.43
43.80
50.79
61.68
75.47
90.21
103.64
114.13
120.43
122.33
121.09
119.11
119.06
122.69
129.69
137.29
141.08
135.50
116.25
82.28
36.26
-16.74
-71.31
-123.44
-171.89
-211.91
-238.28
-247.87
-241.17
-221.14
-192.03
-158.75
-126.60
-100.84
-84.12
-78.83
-86.17
-105.21
-132.36
-161.94
-186.33
-197.58
-192.15
-173.01
-149.37
-131.48
-125.59
-131.48
-143.78
-155.44
-162.17
-163.41
-160.57
-156.00
-150.92
-144.74
-135.62
-121.67
-101.74
-75.83
-47.52
-20.27
2.72
19.58
30.15
35.91
39.59
44.88
55.59
74.86
104.26
141.87
181.89
215.40
232.71
226.40
193.92
138.74
69.44
-2.18
-64.52
-108.87
-130.96
-131.01
-112.70
-81.50
-42.98
-2.03
37.95
74.87
107.93
137.53
165.00
192.24
220.88
251.86
284.92
319.21
353.27
384.94
410.89
426.63
427.45
410.12
374.99
325.51
268.12
209.10
151.95
96.27
39.24
-21.26
-83.57
-140.34
-182.14
-199.56
-188.54
-153.39
-106.16
-62.69
-37.00
-36.23
-57.94
-95.20
-137.95
-178.36
-212.61
-239.82
-259.46
-269.42
-266.33
-246.36
-211.49
-166.20
-117.34
-70.79
-28.86
10.14
49.47
82.00
113.72
134.16
133.13
104.80
52.61
-10.19
-64.99
-95.74
-96.52
-73.75
-47.01
-36.77
-56.25
-105.33
-170.88
-232.87
-273.06
-281.68
-258.58
-213.72
-158.76
-103.09
-51.72
-5.76
35.47
72.78
105.97
134.68
156.72
170.18
172.31
159.35
127.71
76.15
8.07
-67.54
-137.25
-187.71
-208.92
-197.53
-157.74
-100.21
-39.31
10.60
38.91
42.28
25.69
1.51
-15.04
-11.86
15.09
59.78
108.93
147.55
165.23
159.92
137.52
108.61
84.18
72.39
77.24
98.51
132.41
172.78
212.71
246.01
268.15
276.68
270.55
249.51
213.91
165.37
107.81
47.58
-7.86
-52.32
-83.07
-101.23
-110.23
-112.99
-110.04
-99.80
-80.73
-53.91
-23.77
3.28
21.72
29.56
29.05
25.17
22.73
24.17
28.59
32.48
31.18
20.41
-2.48
-37.41
-81.00
-126.47
-164.42
-185.00
-180.75
-149.38
-95.54
-30.34
31.37
75.43
92.46
80.22
43.26
-9.60
-68.55
-125.44
-174.78
-213.23
-238.58
-249.31
-244.99
-226.88
-198.09
-162.56
-123.86
-84.28
-44.92
-6.57
29.59
61.88
89.11
111.56
131.42
151.91
175.99
205.04
238.27
273.39
307.70
339.00
365.69
386.02
397.52
396.98
381.54
350.19
304.89
250.38
192.52
136.18
83.64
34.48
-13.08
-60.37
-107.20
-151.99
-193.11
-230.18
-264.61
-298.73
-334.09
-369.89
-402.54
-426.54
-436.44
-428.88
-403.69
-363.72
-313.87
-259.78
-206.80
-159.31
-120.03
-89.29
-64.63
-41.38
-14.85
16.78
50.59
79.33
94.94
93.11
76.71
55.54
42.62
48.66
77.78
126.41
185.32
243.54
291.68
323.73
337.06
331.57
308.58
270.03
217.86
153.95
80.90
3.31
-71.16
-132.10
-168.59
-172.95
-144.54
-91.41
-28.66
26.28
58.99
62.13
36.42
-11.09
-69.97
-129.20
-178.72
-210.18
-217.52
-197.88
-152.55
-87.56
-12.65
60.58
121.26
161.33
176.69
167.09
135.13
85.50
24.32
-41.19
-102.65
-151.30
-180.04
-185.73
-171.14
-144.44
-116.08
-94.60
-83.31
-80.05
-80.13
-80.47
-82.00
-88.93
-104.90
-128.83
-153.71
-168.53
-163.09
-132.29
-78.04
-8.28
65.68
132.21
181.71
208.10
209.53
188.56
151.50
107.24
65.70
35.17
20.10
19.69
27.73
34.79
31.79
13.87
-17.14
-52.98
-82.17
-94.58
-85.36
-56.31
-14.33
31.51
72.90
103.69
119.45
116.76
93.22
48.61
-13.49
-84.92
-154.10
-208.93
-240.51
-245.87
-228.55
-196.53
-158.95
-122.93
-92.17
-67.63
-49.42
-38.60
-37.28
-47.03
-66.74
-91.34
-112.54
-121.32
-111.20
-80.34
-31.86
27.83
91.35
152.05
204.71
245.56
272.59
286.33
290.51
291.55
296.55
310.24
332.51
358.01
378.08
384.36
372.14
342.17
300.01
253.32
209.03
171.39
141.76
119.52
103.55
93.17
88.20
87.97
89.89
89.19
79.91
57.30
20.38
-26.92
-76.25
-117.34
-141.30
-144.04
-127.25
-97.05
-60.86
-24.72
7.96
35.65
57.10
69.93
69.92
52.77
16.64
-36.03
-98.81
-163.76
-224.21
-276.46
-315.61
-336.65
-336.33
-315.63
-279.84
-235.83
-189.52
-144.96
-104.21
-68.27
-37.65
-12.31
8.53
26.05
41.63
56.01
69.01
80.30
89.56
96.29
100.16
100.96
98.29
91.29
78.54
58.53
31.15
-1.29
-34.90
-65.48
-89.44
-105.21
-113.39
-116.40
-120.90
-128.77
-141.16
-157.63
-175.58
-190.25
-195.50
-185.14
-154.95
-105.59
-43.17
20.18
71.23
100.41
104.46
86.08
51.03
7.02
-39.47
-84.88
-129.64
-173.86
-214.72
-246.11
-260.88
-254.21
-225.81
-181.25
-125.25
-69.70
-27.41
-5.63
-2.82
-11.94
-25.93
-41.11
-56.57
-73.39
-91.97
-109.69
-122.24
-126.07
-120.20
-106.13
-87.39
-67.17
-47.18
-27.97
-8.31
13.56
38.57
65.71
92.29
115.23
132.32
143.09
148.81
152.70
158.56
169.00
183.89
200.26
213.56
219.78
216.99
205.83
189.17
170.81
154.10
141.20
133.09
129.81
130.72
134.35
138.50
140.73
139.22
133.33
123.70
111.76
98.92
86.08
73.64
61.70
50.38
39.86
30.34
21.93
14.75
8.99
5.02
3.24
3.90
6.78
11.09
15.56
18.81
19.83
18.41
15.26
11.78
9.44
9.26
11.48
15.61
20.68
25.60
29.32
30.78
29.00
23.24
13.37
0.12
-15.04
-30.49
-45.06
-58.37
-70.51
-81.35
-89.92
-94.51
-93.65
-87.40
-78.08
-70.00
-67.82
-74.42
-89.66
-110.20
-130.62
-145.19
-149.41
-141.44
-122.97
-99.33
-78.64
-69.84
-80.22
-112.99
-165.74
-230.55
-295.79
-349.09
-380.40
-384.14
-359.84
-311.47
-245.83
-170.74
-93.45
-19.88
45.63
100.50
143.65
175.83
199.88
220.23
241.82
268.90
303.94
347.08
396.05
446.30
491.79
526.39
545.88
549.78
541.95
529.10
517.54
509.87
503.59
492.54
470.52
434.85
387.75
334.95
282.34
232.74
185.08
136.13
83.57
28.22
-26.12
-74.50
-113.61
-143.60
-168.41
-193.69
-224.28
-262.27
-306.74
-354.67
-402.12
-444.68
-477.23
-494.98
-494.10
-473.31
-434.87
-384.34
-328.72
-273.62
-221.23
-170.76
-122.30
-79.52
-50.04
-42.28
-60.96
-104.12
-163.30
-226.75
-277.59
-301.95
-293.71
-257.37
-204.58
-146.82
-90.79
-38.54
9.62
52.99
89.06
114.97
129.33
133.53
131.59
128.02
125.96
126.31
128.22
129.49
128.07
123.15
115.96
109.02
104.51
103.20
103.82
104.16
101.75
94.83
82.97
66.79
47.55
26.02
3.08
-20.99
-45.97
-71.47
-96.94
-121.44
-143.12
-158.79
-164.40
-156.31
-133.26
-97.81
-55.97
-15.45
17.17
38.58
49.18
51.65
49.24
43.70
35.55
25.16
13.50
2.72
-4.40
-5.41
0.23
11.25
23.91
32.92
33.57
23.86
6.03
-13.68
-27.57
-29.92
-19.70
-1.00
19.31
35.03
42.96
43.85
40.04
33.77
26.21
17.44
7.38
-3.27
-12.49
-18.34
-19.04
-14.18
-4.59
8.25
22.55
36.62
49.24
59.64
67.25
71.93
73.52
71.57
65.94
56.42
43.02
25.78
4.89
-19.10
-44.88
-71.73
-99.41
-127.52
-154.57
-177.18
-190.25
-188.55
-170.65
-136.94
-93.03
-47.30
-7.50
22.06
41.60
54.55
64.99
75.46
86.38
96.18
103.55
108.78
113.54
119.56
126.85
133.11
134.42
127.26
110.19
85.38
57.65
31.80
10.31
-7.33
-22.92
-36.93
-47.08
-49.85
-42.91
-28.01
-11.64
-2.51
-7.32
-27.34
-57.96
-91.25
-120.48
-142.33
-157.33
-167.97
-176.49
-183.91
-190.95
-199.61
-210.88
-227.52
-250.41
-276.35
-298.09
-307.17
-297.81
-270.08
-229.93
-186.48
-148.44
-120.44
-102.52
-91.76
-84.69
-78.85
-72.87
-65.52
-55.07
-39.64
-17.57
11.52
46.27
83.90
121.06
155.13
185.05
211.39
235.44
258.54
281.20
302.91
322.52
338.83
351.25
360.35
367.75
375.51
385.54
398.78
414.51
429.96
440.49
440.87
427.14
398.05
355.33
302.99
245.95
188.52
133.52
82.13
34.93
-6.82
-41.22
-66.59
-82.66
-90.99
-94.85
-98.46
-106.61
-123.59
-152.08
-192.42
-242.26
-296.51
-347.93
-388.69
-410.34
-409.95
-393.27
-371.69
-355.40
-348.46
-349.20
-352.18
-353.19
-350.63
-345.25
-338.20
-329.01
-315.41
-295.48
-268.79
-236.94
-203.16
-171.18
-144.16
-123.55
-108.73
-97.55
-87.77
-77.87
-67.55
-57.54
-48.72
-41.71
-36.29
-31.42
-25.75
-18.45
-9.29
1.16
11.93
22.31
32.26
42.45
53.77
66.80
81.12
96.34
111.47
125.61
138.53
151.03
164.69
181.06
200.67
222.49
246.06
270.09
293.23
314.64
334.76
355.44
379.34
408.79
444.42
487.08
533.68
576.96
607.42
617.18
603.96
572.85
535.04
503.76
493.23
509.60
548.63
597.14
638.33
658.11
649.52
613.83
534.36
409.39
249.57
75.38
-90.89
-233.15
-344.37
-424.58
-477.41
-508.29
-519.59
-514.75
-498.39
-475.71
-451.01
-426.74
-403.41
-380.40
-357.07
-330.37
-299.19
-264.15
-228.90
-198.12
-175.67
-163.63
-162.44
-171.69
-188.53
-209.91
-230.78
-245.68
-249.46
-238.72
-213.52
-177.87
