1626983255.00
64.000000
-0.00
-0.00
-0.00
-0.00
-0.00
-0.00
-0.00
-0.00
-0.00
-0.00
0.00
0.01
0.01
-0.00
-0.03
-0.05
-0.05
0.00
0.13
0.36
0.66
1.01
1.37
1.72
2.05
2.39
2.78
3.26
3.84
4.49
5.13
5.68
6.10
6.41
6.70
7.08
7.63
8.47
9.50
10.58
11.55
12.34
13.00
13.72
14.76
16.31
18.60
21.39
24.34
27.07
29.39
31.38
33.45
36.16
39.94
45.17
51.40
57.93
63.98
69.07
73.33
77.48
82.54
89.29
98.34
108.98
120.03
130.16
138.57
145.37
151.62
159.25
167.46
178.66
193.14
210.36
228.37
243.85
252.56
250.43
234.91
205.87
165.98
118.91
68.42
16.90
-35.01
-87.91
-142.39
-197.70
-251.16
-298.28
-334.54
-356.64
-363.63
-357.28
-341.27
-319.83
-296.29
-272.60
-249.26
-226.41
-204.47
-184.34
-166.90
-152.40
-140.15
-128.75
-116.84
-103.68
-89.61
-75.76
-63.50
-53.71
-46.46
-41.03
-36.27
-31.15
-25.14
-18.37
-11.53
-5.44
-0.67
2.62
4.74
6.25
7.69
9.39
11.35
13.31
14.93
16.02
16.54
16.67
16.63
16.61
16.67
16.78
16.80
16.63
16.21
15.55
14.72
13.81
12.92
12.09
11.37
10.76
10.31
10.10
10.21
10.70
11.57
12.69
13.93
15.12
16.13
16.93
17.49
17.84
17.99
17.91
17.55
16.82
15.63
13.93
11.75
9.28
6.80
4.61
2.98
1.96
1.44
1.17
0.89
0.40
-0.31
-1.08
-1.67
-1.79
-1.25
0.00
1.87
4.11
6.39
8.42
9.97
10.95
11.39
11.41
11.19
10.94
10.81
10.93
11.34
12.01
12.80
13.56
14.15
14.45
14.46
14.20
13.76
13.17
12.44
11.55
10.50
9.35
8.16
7.03
6.01
5.13
4.42
3.92
3.69
3.79
4.23
4.95
5.82
6.68
7.44
8.07
8.59
9.06
9.50
9.88
10.14
10.18
9.96
9.48
8.80
8.01
7.19
6.41
5.69
4.97
4.09
2.89
1.25
-0.83
-3.15
-5.42
-7.31
-8.61
-9.26
-9.38
-9.16
-8.73
-8.15
-7.43
-6.59
-5.72
-4.95
-4.39
-4.08
-3.96
-3.92
-3.83
-3.62
-3.27
-2.81
-2.33
-1.91
-1.60
-1.43
-1.37
-1.36
-1.34
-1.28
-1.19
-1.13
-1.16
-1.30
-1.50
-1.67
-1.75
-1.76
-1.77
-1.90
-2.21
-2.67
-3.18
-3.60
-3.84
-3.86
-3.73
-3.54
-3.35
-3.20
-3.10
-3.04
-2.97
-2.83
-2.54
-2.02
-1.23
-0.22
0.89
1.94
2.78
3.31
3.50
3.38
3.02
2.45
1.71
0.83
-0.11
-0.99
-1.73
-2.25
-2.60
-2.87
-3.19
-3.63
-4.14
-4.57
-4.71
-4.44
-3.74
-2.70
-1.45
-0.15
1.12
2.26
3.17
3.77
4.04
4.03
3.88
3.77
3.80
4.03
4.42
4.95
5.62
6.48
7.50
8.58
9.48
9.97
9.90
9.23
8.06
6.54
4.79
2.89
0.88
-1.13
-2.98
-4.46
-5.41
-5.77
-5.63
-5.21
-4.76
-4.43
-4.32
-4.33
-4.31
-4.08
-3.53
-2.63
-1.46
-0.14
1.18
2.36
3.32
3.97
4.33
4.41
4.31
4.11
3.91
3.79
3.77
3.88
4.10
4.39
4.72
5.02
5.18
5.13
4.82
4.26
3.55
2.79
2.09
1.53
1.12
0.89
0.78
0.78
0.81
0.80
0.71
0.59
0.48
0.48
0.64
0.90
1.14
1.23
1.06
0.67
0.15
-0.33
-0.67
-0.78
-0.64
-0.24
0.42
1.27
2.21
3.09
3.78
4.22
4.45
4.56
4.61
4.57
4.37
3.93
3.25
2.40
1.50
0.65
-0.13
-0.89
-1.65
-2.43
-3.13
-3.65
-3.88
-3.81
-3.49
-3.02
-2.52
-2.09
-1.82
-1.72
-1.81
-2.00
-2.19
-2.29
-2.22
-1.99
-1.68
-1.38
-1.17
-1.04
-0.96
-0.85
-0.64
-0.28
0.25
0.90
1.63
2.38
3.08
3.66
4.12
4.44
4.67
4.86
5.05
5.28
5.60
6.03
6.61
7.29
7.99
8.61
9.07
9.33
9.47
9.58
9.79
10.15
10.64
11.14
11.49
11.55
11.28
10.78
10.21
9.77
9.60
9.69
9.96
10.22
10.22
9.72
8.49
6.35
3.28
-0.53
-4.65
-8.50
-11.52
-13.38
-14.06
-13.83
-13.08
-12.12
-11.11
-10.10
-9.08
-8.11
-7.30
-6.74
-6.44
-6.35
-6.33
-6.27
-6.12
-5.90
-5.68
-5.51
-5.39
-5.27
-5.08
-4.74
-4.22
-3.59
-2.96
-2.45
-2.17
-2.13
-2.25
-2.39
-2.40
-2.22
-1.86
-1.42
-1.03
-0.80
-0.73
-0.74
-0.73
-0.59
-0.33
-0.02
0.20
0.23
0.07
-0.20
-0.45
-0.59
-0.56
-0.40
-0.20
-0.05
-0.03
-0.15
-0.37
-0.62
-0.80
-0.83
-0.68
-0.41
-0.10
0.14
0.24
0.18
0.01
-0.17
-0.27
-0.25
-0.07
0.21
0.53
0.84
1.06
1.18
1.16
1.02
0.76
0.43
0.09
-0.15
-0.23
-0.15
0.07
0.34
0.57
0.74
0.84
0.92
1.00
1.08
1.15
1.22
1.28
1.37
1.48
1.59
1.68
1.74
1.82
1.99
2.28
2.65
2.96
3.03
2.74
2.08
1.19
0.27
-0.49
-1.04
-1.45
-1.86
-2.36
-2.91
-3.39
-3.65
-3.63
-3.46
-3.34
-3.46
-3.81
-4.23
-4.45
-4.29
-3.71
-2.86
-1.96
-1.18
-0.61
-0.24
-0.03
0.06
0.05
-0.04
-0.15
-0.22
-0.18
-0.02
0.23
0.49
0.66
0.69
0.58
0.36
0.12
-0.05
-0.07
0.11
0.48
0.98
1.50
1.90
2.11
2.10
1.90
1.60
1.27
0.96
0.71
0.55
0.48
0.49
0.54
0.55
0.43
0.14
-0.32
-0.86
-1.35
-1.69
-1.83
-1.78
-1.59
-1.32
-1.03
-0.74
-0.51
-0.41
-0.48
-0.73
-1.08
-1.38
-1.49
-1.37
-1.05
-0.65
-0.31
-0.09
-0.00
0.01
0.00
-0.00
-0.02
-0.06
-0.14
-0.20
-0.22
-0.14
0.04
0.29
0.58
0.87
1.11
1.24
1.21
0.99
0.61
0.16
-0.24
-0.48
-0.54
-0.45
-0.27
-0.06
0.18
0.45
0.74
0.97
1.08
1.00
0.79
0.53
0.33
0.25
0.26
0.29
0.28
0.22
0.14
0.08
0.06
0.04
-0.02
-0.15
-0.29
-0.38
-0.31
-0.07
0.26
0.56
0.71
0.66
0.49
0.33
0.26
0.28
0.30
0.22
0.01
-0.26
-0.45
-0.48
-0.37
-0.25
-0.24
-0.39
-0.60
-0.73
-0.67
-0.43
-0.13
0.12
0.26
0.35
0.51
0.82
1.26
1.72
2.07
2.20
2.14
1.94
1.73
1.58
1.56
1.69
1.99
2.45
3.03
3.60
4.03
4.20
4.13
4.03
4.20
4.88
6.15
7.78
9.33
10.39
10.76
10.65
10.64
11.41
13.40
16.59
20.38
23.84
26.16
27.01
26.84
26.72
27.86
31.04
36.13
42.10
47.53
51.23
52.86
53.10
53.22
54.63
58.40
65.12
74.85
86.84
99.00
107.70
108.43
97.37
73.45
39.55
1.98
-31.69
-55.55
-67.30
-68.44
-62.65
-53.58
-43.40
-32.72
-21.61
-10.68
-1.35
4.85
7.27
6.75
5.29
5.26
8.20
14.22
21.92
28.83
32.11
29.37
19.48
2.98
-17.80
-39.39
-58.19
-71.61
-78.83
-80.77
-79.35
-76.46
-73.22
-69.84
-66.03
-61.63
-56.97
-52.74
-49.55
-47.60
-46.56
-45.83
-44.83
-43.29
-41.28
-39.14
-37.25
-35.88
-35.05
-34.54
-33.95
-32.88
-31.14
-28.80
-26.24
-23.95
-22.31
-21.43
-21.13
-21.08
-20.94
-20.59
-20.11
-19.73
-19.66
-19.96
-20.52
-21.14
-21.62
-21.90
-22.08
-22.38
-23.05
-24.20
-25.71
-27.23
-28.38
-28.94
-29.01
-29.08
-29.72
-31.40
-34.26
-38.06
-42.35
-46.74
-50.96
-54.93
-58.54
-61.60
-63.85
-65.11
-65.43
-65.09
-64.45
-63.66
-62.48
-60.25
-56.07
-49.18
-39.19
-26.26
-11.07
5.28
21.52
36.42
49.04
58.95
66.30
71.70
75.92
79.51
82.61
84.99
86.26
86.21
85.00
83.12
81.14
79.51
78.39
77.71
77.24
76.72
75.87
74.47
72.36
69.59
66.49
63.60
61.47
60.47
60.56
61.31
62.15
62.70
63.01
63.58
65.18
68.42
73.43
79.76
86.47
92.56
97.37
100.85
103.62
106.74
111.45
118.71
128.70
140.29
150.86
156.37
152.25
134.70
102.26
56.87
3.87
-49.26
-95.09
-128.43
-147.58
-154.20
-152.00
-144.98
-136.09
-126.84
-117.81
-109.31
-101.87
-96.07
-92.12
-89.46
-86.87
-83.03
-77.26
-69.87
-62.01
-55.12
-50.18
-47.32
-45.75
-44.26
-41.77
-37.83
-32.73
-27.32
-22.61
-19.27
-17.42
-16.70
-16.41
-15.92
-14.80
-12.99
-10.70
-8.36
-6.46
-5.35
-5.20
-5.84
-6.91
-7.93
-8.56
-8.70
-8.49
-8.21
-8.09
-8.18
-8.38
-8.55
-8.59
-8.53
-8.45
-8.43
-8.51
-8.61
-8.69
-8.71
-8.71
-8.74
-8.88
-9.16
-9.61
-10.24
-11.08
-12.09
-13.10
-13.88
-14.11
-13.59
-12.30
-10.48
-8.56
-6.98
-5.98
-5.51
-5.26
-4.82
-3.86
-2.27
-0.19
2.04
4.04
5.46
6.11
6.01
5.34
4.47
3.76
3.53
3.92
4.79
5.78
6.44
6.40
5.64
4.49
3.67
3.96
5.98
9.83
14.98
20.42
24.98
27.83
28.83
28.63
28.43
29.43
32.30
36.61
40.73
42.17
38.45
28.12
11.50
-9.20
-30.63
-49.40
-63.27
-71.66
-75.41
-76.05
-74.93
-72.81
-69.96
-66.52
-62.86
-59.54
-56.82
-54.44
-51.63
-47.53
-41.84
-35.19
-28.87
-23.95
-20.23
-15.85
-7.91
6.21
27.38
54.04
82.61
108.95
129.75
143.55
150.71
152.87
152.05
150.25
149.34
150.77
155.01
160.94
165.54
164.38
152.96
128.55
91.54
45.69
-2.85
-47.48
-83.13
-107.58
-121.31
-126.36
-124.92
-118.23
-106.59
-90.10
-69.61
-47.18
-25.90
-9.03
0.89
2.69
-3.31
-15.57
-31.77
-49.27
-65.60
-79.04
-88.92
-95.58
-100.02
-103.24
-105.70
-107.26
-107.59
-106.63
-104.93
-103.47
-103.20
-104.69
-108.01
-112.96
-119.00
-125.09
-129.23
-128.50
-119.89
-101.76
-75.12
-43.76
-12.97
12.59
30.76
42.30
49.87
56.19
62.59
68.79
73.82
77.14
79.19
81.04
83.50
86.41
88.64
88.77
85.85
79.99
72.42
64.97
59.34
56.51
56.35
57.75
59.16
59.27
57.51
54.19
50.23
46.60
43.84
41.88
40.21
38.26
35.73
32.71
29.62
26.91
24.85
23.44
22.40
21.43
20.26
18.84
17.26
15.71
14.44
13.61
13.25
13.29
13.53
13.75
13.76
13.48
12.99
12.48
12.12
11.94
11.75
11.18
9.83
7.46
4.08
-0.03
-4.46
-8.80
-12.73
-16.05
-18.64
-20.39
-21.33
-21.53
-21.24
-20.72
-20.18
-19.68
-19.06
-18.07
-16.53
-14.44
-12.06
-9.78
-7.97
-6.85
-6.41
-6.47
-6.75
-7.00
-7.02
-6.75
-6.17
-5.34
-4.35
-3.36
-2.57
-2.16
-2.22
-2.68
-3.34
-3.88
-4.03
-3.70
-2.99
-2.14
-1.39
-0.88
-0.53
-0.17
0.35
1.07
1.86
2.58
3.18
3.72
4.35
5.15
6.05
6.85
7.32
7.38
7.12
6.77
6.54
6.50
6.58
6.62
6.51
6.21
5.77
5.27
4.77
4.27
3.77
3.28
2.79
2.34
1.91
1.47
0.98
0.40
-0.28
-1.04
-1.82
-2.44
-2.72
-2.47
-1.64
-0.37
1.06
2.32
3.25
3.96
4.81
6.21
8.41
11.34
14.55
17.46
19.59
20.82
21.51
22.36
24.09
27.13
31.41
36.31
40.98
44.64
47.01
48.46
49.86
52.13
55.77
60.50
65.26
68.88
70.63
70.84
70.69
71.39
73.20
74.95
74.52
70.01
60.67
46.85
29.22
7.65
-18.83
-51.07
-88.26
-127.12
-162.66
-190.34
-208.35
-218.22
-223.33
-226.09
-225.62
-217.91
-198.22
-164.49
-119.46
-70.22
-25.28
8.94
30.44
41.56
46.84
50.28
53.51
55.71
55.06
50.42
42.36
32.89
24.40
18.49
15.34
13.88
12.55
10.15
6.39
1.98
-1.88
-4.08
-4.19
-2.63
-0.56
0.76
0.46
-1.60
-4.77
-8.10
-10.91
-13.15
-15.27
-17.69
-20.05
-21.11
-19.16
-13.01
-2.85
9.59
21.71
31.24
37.19
40.03
41.16
41.94
42.95
43.91
44.10
43.09
41.04
38.74
37.12
36.71
37.42
38.49
38.82
37.46
33.96
28.46
21.66
14.51
7.93
2.58
-1.27
-3.67
-4.79
-4.77
-3.54
-0.76
3.97
10.83
19.44
28.62
36.69
42.05
43.81
42.35
39.31
36.87
37.00
40.73
47.75
56.55
64.68
68.90
65.64
51.57
24.83
-13.65
-59.62
-106.31
-146.65
-175.77
-192.57
-199.33
-199.58
-195.51
-186.51
-169.85
-142.96
-105.89
-62.30
-18.24
20.53
50.85
73.06
89.96
104.52
118.12
130.02
138.17
140.52
136.14
125.60
110.67
93.89
78.05
65.72
58.30
54.82
51.71
44.30
29.46
8.34
-13.07
-26.36
-24.76
-6.88
22.38
54.10
79.31
92.47
92.77
83.03
67.49
49.91
32.61
16.81
3.11
-8.07
-16.55
-22.34
-25.60
-26.55
-25.63
-23.44
-20.46
-16.89
-12.67
-8.23
-5.26
-7.08
-17.60
-39.43
-71.99
-110.98
-149.63
-181.32
-202.10
-211.83
-213.49
-211.34
-208.91
-207.92
-208.17
-208.04
-205.08
-196.30
-178.59
-149.56
-108.71
-58.35
-3.56
49.09
93.44
125.67
145.10
153.76
154.99
151.91
146.60
140.03
132.76
125.43
118.91
113.81
109.88
105.83
99.72
89.96
76.14
59.32
41.68
25.51
12.21
1.77
-6.94
-15.42
-24.61
-34.51
-44.32
-53.09
-60.28
-65.87
-69.97
-72.16
-71.34
-65.99
-55.09
-38.99
-19.67
-0.28
16.03
27.28
33.16
34.84
34.16
32.72
31.37
30.23
29.09
27.84
26.69
26.03
26.19
27.15
28.52
29.73
30.27
30.01
29.16
28.10
27.16
26.37
25.55
24.49
23.13
21.60
20.04
18.40
16.35
13.40
9.24
3.97
-1.87
-7.48
-12.23
-15.83
-18.38
-20.16
-21.37
-22.03
-22.05
-21.45
-20.48
-19.57
-19.15
-19.43
-20.25
-21.17
-21.67
-21.44
-20.51
-19.24
-18.20
-17.83
-18.32
-19.52
-20.97
-22.11
-22.46
-21.76
-20.10
-17.89
-15.76
-14.21
-13.33
-12.55
-10.77
-6.77
0.10
9.53
20.17
30.17
37.99
43.11
46.21
48.74
52.14
57.06
63.12
69.08
73.60
75.85
75.92
74.74
73.73
74.29
77.44
83.59
92.39
102.41
110.92
114.36
109.35
94.34
70.79
43.20
17.69
-0.40
-8.48
-7.45
-0.68
7.97
15.86
22.18
27.54
32.85
38.38
43.41
46.30
44.92
37.29
22.22
0.05
-27.09
-55.56
-81.36
-101.38
-114.34
-120.75
-122.16
-120.03
-115.17
-107.76
-97.98
-86.61
-75.10
-65.23
-58.37
-54.95
-54.33
-55.06
-55.52
-54.56
-51.96
-48.29
-44.67
-42.12
-41.04
-41.07
-41.37
-41.07
-39.70
-37.13
-33.39
-28.38
-21.95
-14.06
-5.15
3.79
11.54
17.11
20.20
21.29
21.31
21.16
21.35
21.81
22.21
22.20
21.60
20.47
19.02
17.41
15.72
13.90
11.75
9.15
6.20
3.18
0.53
-1.35
-2.33
-2.58
-2.54
-2.64
-3.07
-3.72
-4.26
-4.32
-3.66
-2.30
-0.53
1.21
2.42
2.68
1.71
-0.61
-4.17
-8.65
-13.43
-17.72
-20.66
-21.68
-20.76
-18.49
-15.79
-13.52
-12.02
-11.14
-10.58
-10.41
-11.12
-13.14
-16.20
-19.05
-19.99
-17.85
-12.90
-6.78
-1.62
1.30
2.31
3.11
5.57
10.62
17.58
24.65
29.89
32.24
31.80
29.55
26.68
23.99
21.80
20.00
18.34
16.71
15.23
14.13
13.59
13.50
13.54
13.29
12.44
11.01
9.24
7.48
5.85
4.23
2.33
-0.06
-2.86
-5.69
-8.09
-9.66
-10.33
-10.29
-9.87
-9.36
-8.96
-8.71
-8.62
-8.67
-8.85
-9.12
-9.37
-9.46
-9.27
-8.75
-7.93
-6.96
-6.05
-5.36
-5.04
-5.08
-5.38
-5.77
-6.04
-6.07
-5.86
-5.54
-5.27
-5.23
-5.46
-5.90
-6.38
-6.74
-6.90
-6.93
-6.98
-7.19
-7.67
-8.41
-9.35
-10.39
-11.46
-12.42
-13.12
-13.30
-12.73
-11.29
-9.11
-6.56
-4.14
-2.27
-1.18
-0.79
-0.84
-0.99
-1.08
-1.09
-1.20
-1.62
-2.53
-3.94
-5.68
-7.43
-8.80
-9.47
-9.29
-8.35
-6.88
-5.19
-3.52
-1.99
-0.62
0.61
1.66
2.52
3.24
3.96
4.90
6.23
7.96
9.94
11.89
13.58
14.95
16.07
17.07
18.07
19.03
19.83
20.29
20.30
19.81
18.83
17.42
15.65
13.63
11.49
9.37
7.43
5.77
4.44
3.44
2.73
2.23
1.87
1.57
1.30
1.08
0.90
0.77
0.65
0.48
0.20
-0.22
-0.70
-1.13
-1.40
-1.44
-1.28
-0.99
-0.68
-0.41
-0.22
-0.09
-0.04
-0.05
-0.15
-0.35
-0.61
-0.87
-1.06
-1.14
-1.09
-0.96
-0.80
-0.65
-0.55
-0.52
-0.55
-0.66
-0.82
-0.99
-1.11
-1.14
-1.07
-0.95
-0.87
-0.88
-0.94
-0.98
-0.86
-0.53
-0.03
0.49
0.88
0.99
0.82
0.46
0.07
-0.20
-0.29
-0.20
0.02
0.31
0.62
0.93
1.23
1.49
1.70
1.84
1.92
1.95
1.96
1.99
2.06
2.17
2.33
2.54
2.80
3.07
3.34
3.58
3.78
3.94
4.07
4.23
4.46
4.85
5.45
6.26
7.17
8.00
8.58
8.79
8.67
8.41
8.29
8.56
9.31
10.46
11.82
13.17
14.38
15.48
16.59
17.87
19.43
21.23
23.11
24.74
25.56
24.91
22.20
17.22
10.38
2.67
-4.60
-10.24
-13.74
-15.31
-15.78
-16.09
-16.86
-18.18
-19.75
-21.14
-22.12
-22.73
-23.15
-23.53
-23.84
-23.94
-23.61
-22.76
-21.49
-20.10
-18.90
-18.10
-17.71
-17.54
-17.33
-16.89
-16.16
-15.26
-14.37
-13.62
-13.05
-12.62
-12.20
-11.69
-11.04
-10.29
-9.49
-8.68
-7.79
-6.59
-4.80
-2.14
1.44
5.74
10.20
14.12
16.83
17.91
17.28
15.15
11.97
8.22
4.42
1.05
-1.51
-3.03
-3.46
-2.99
-1.99
-0.89
-0.08
0.23
-0.00
-0.68
-1.64
-2.62
-3.35
-3.58
-3.19
-2.23
-0.99
0.10
0.69
0.63
0.17
-0.21
-0.01
1.06
2.86
4.90
6.55
7.36
7.22
6.34
5.13
3.84
2.53
1.00
-0.94
-3.30
-5.82
-8.06
-9.57
-10.01
-9.16
-6.83
-2.84
2.90
10.11
18.01
25.31
30.60
32.92
32.11
28.92
24.59
20.30
16.75
14.00
11.75
9.67
7.65
5.80
4.30
3.17
2.29
1.39
0.21
-1.37
-3.46
-6.04
-9.03
-12.18
-15.07
-17.19
-18.19
-18.04
-17.11
-15.98
-15.13
-14.75
-14.63
-14.37
-13.72
-12.76
-11.89
-11.56
-12.01
-13.08
-14.25
-14.88
-14.46
-12.76
-9.90
-6.21
-2.14
1.79
5.18
7.72
9.23
9.69
9.18
7.86
5.97
3.80
1.74
0.22
-0.38
0.08
1.36
2.76
3.35
2.26
-0.96
-6.11
-12.40
-18.68
-23.89
-27.30
-28.76
-28.54
-27.23
-25.45
-23.73
-22.41
-21.53
-20.80
-19.54
-16.86
-11.99
-4.71
4.33
13.69
21.51
26.24
27.21
24.97
21.04
17.25
15.08
15.20
17.36
20.73
24.28
27.15
28.83
29.12
28.04
25.78
22.63
18.99
15.41
12.42
10.41
9.54
9.62
10.24
10.88
11.05
10.44
8.95
6.68
3.91
1.08
-1.27
-2.52
-2.20
-0.13
3.36
7.48
11.17
13.45
13.84
12.47
9.95
7.06
4.41
2.32
0.98
0.58
1.32
3.21
5.87
8.42
9.79
9.19
6.52
2.47
-1.75
-4.98
-6.43
-5.85
-3.31
1.01
6.92
14.06
21.58
28.04
31.71
31.14
25.88
16.80
5.88
-4.53
-12.62
-17.68
-20.10
-20.86
-20.80
-20.27
-19.19
-17.42
-15.16
-12.99
-11.56
-11.20
-11.67
-12.36
-12.66
-12.35
-11.61
-10.91
-10.67
-10.99
-11.66
-12.30
-12.59
-12.41
-11.87
-11.26
-10.91
-11.02
-11.65
-12.59
-13.44
-13.69
-12.91
-10.88
-7.69
-3.67
0.68
4.89
8.57
11.46
13.32
14.00
13.45
11.77
9.28
6.41
3.66
1.40
-0.23
-1.30
-2.01
-2.60
-3.19
-3.81
-4.37
-4.80
-5.07
-5.23
-5.39
-5.62
-5.93
-6.25
-6.51
-6.66
-6.70
-6.72
-6.84
-7.15
-7.73
-8.59
-9.71
-11.01
-12.41
-13.84
-15.22
-16.48
-17.53
-18.32
-18.79
-18.97
-18.93
-18.76
-18.48
-17.96
-16.83
-14.69
-11.26
-6.55
-0.95
4.95
10.54
15.40
19.27
21.99
23.34
23.09
21.13
17.66
13.27
8.86
5.32
3.26
2.77
3.45
4.63
5.63
6.01
5.66
4.74
3.53
2.23
0.92
-0.48
-2.04
-3.78
-5.59
-7.31
-8.76
-9.84
-10.49
-10.72
-10.57
-10.18
-9.75
-9.56
-9.87
-10.76
-12.12
-13.66
-15.01
-15.93
-16.42
-16.77
-17.47
-19.01
-21.67
-25.25
-29.07
-32.18
-33.67
-33.00
-30.24
-26.00
-21.03
-15.75
-9.91
-2.69
6.84
19.12
33.68
49.29
64.42
77.86
89.15
98.44
106.21
112.86
118.64
123.75
128.39
132.41
134.74
133.07
124.29
105.91
77.56
41.89
4.02
-30.16
-56.13
-72.15
-79.27
-80.16
-77.59
-73.33
-68.08
-62.02
-55.45
-49.06
-43.66
-39.69
-36.91
-34.54
-31.60
-27.49
-22.29
-16.78
-12.05
-8.99
-7.87
-8.22
-9.10
-9.52
-8.90
-7.26
-5.16
-3.35
-2.43
-2.61
-3.65
-5.04
-6.21
-6.75
-6.58
-5.89
-5.05
-4.43
-4.31
-4.77
-5.70
-6.89
-8.10
-9.14
-9.91
-10.46
-10.93
-11.42
-12.00
-12.59
-13.03
-13.18
-12.97
-12.49
-11.92
-11.47
-11.30
-11.43
-11.75
-12.04
-12.05
-11.62
-10.68
-9.33
-7.79
-6.39
-5.42
-5.05
-5.22
-5.67
-6.03
-5.96
-5.34
-4.36
-3.53
-3.45
-4.56
-6.90
-10.02
-13.14
-15.54
-16.87
-17.47
-18.23
-20.18
-24.00
-29.52
-35.76
-41.31
-45.02
-46.54
-46.55
-46.50
-48.06
-52.47
-60.07
-70.01
-80.10
-86.90
-86.29
-74.48
-49.45
-12.02
33.87
82.17
126.61
162.67
188.60
205.44
215.94
223.05
228.66
232.93
234.07
228.74
212.92
183.35
139.33
83.90
23.91
-31.71
-74.62
-99.91
-107.56
-101.88
-89.69
-77.77
-70.87
-71.01
-77.51
-87.61
-96.97
-100.73
-95.06
-79.07
-55.75
-31.54
-13.82
-7.83
-14.52
-30.22
-48.18
-60.93
-62.67
-50.89
-27.35
2.16
29.11
45.20
46.07
33.92
16.94
5.27
5.30
15.52
27.09
29.14
15.82
-9.30
-34.11
-44.13
-30.19
6.28
53.57
94.97
116.46
112.46
87.47
52.72
20.24
-2.54
-14.97
-21.69
-28.44
-38.15
-49.31
-57.55
-58.97
-52.86
-42.42
-32.99
-29.10
-32.17
-39.98
-48.19
-52.75
-51.86
-46.54
-39.91
-35.43
-35.28
-39.54
-46.49
-53.75
-59.42
-62.85
-64.60
-65.88
-67.80
-70.92
-75.26
-80.60
-86.92
-94.55
-104.11
-115.84
-129.00
-141.29
-148.91
-147.28
-132.35
-102.21
-58.21
-5.16
49.79
99.10
137.04
161.02
171.90
172.93
168.19
161.17
154.06
147.90
143.10
140.04
139.15
140.56
143.46
145.74
144.35
136.23
119.63
95.14
65.97
37.01
13.12
-2.63
-9.93
-10.98
-9.15
-7.36
-6.96
-7.65
-8.32
-8.06
-6.83
-5.39
-4.67
-5.17
-6.69
-8.50
-9.83
-10.35
-10.22
-9.91
-9.82
-9.95
-9.82
-8.68
-5.88
-1.27
4.60
10.67
15.81
19.42
21.76
23.93
27.28
32.75
40.24
48.63
56.18
61.35
63.56
63.43
62.56
62.97
66.38
73.73
84.64
97.13
107.48
110.78
102.21
78.99
41.98
-3.84
-50.64
-90.39
-117.64
-131.08
-133.24
-128.53
-120.94
-112.63
-103.95
-94.57
-84.57
-74.99
-67.25
-62.34
-60.15
-59.44
-58.52
-56.09
-51.65
-45.66
-39.08
-32.81
-27.30
-22.42
-17.67
-12.50
-6.75
-0.75
4.70
8.71
10.67
10.58
9.04
7.03
5.43
4.73
4.85
5.31
5.54
5.20
4.26
2.98
1.73
0.79
0.26
0.06
0.00
-0.09
-0.36
-0.86
-1.55
-2.32
-3.03
-3.53
-3.76
-3.75
-3.61
-3.48
-3.50
-3.68
-3.95
-4.16
-4.21
-4.04
-3.70
-3.27
-2.81
-2.30
-1.70
-0.98
-0.19
0.52
1.02
1.23
1.20
1.04
0.90
0.89
1.03
1.28
1.57
1.86
2.11
2.33
2.50
2.65
2.76
2.83
2.82
2.71
2.45
2.03
1.52
0.98
0.55
0.30
0.29
0.50
0.86
1.26
1.55
1.65
1.53
1.27
1.01
0.91
1.02
1.27
1.51
1.64
1.61
1.52
1.44
1.42
1.40
1.27
0.93
0.41
-0.18
-0.68
-1.02
-1.23
-1.38
-1.58
-1.86
-2.18
-2.47
-2.65
-2.67
-2.56
-2.40
-2.29
-2.34
-2.59
-3.02
-3.53
-3.99
-4.26
-4.23
-3.89
-3.31
-2.67
-2.18
-2.02
-2.28
-2.86
-3.59
-4.31
-5.02
-5.80
-6.78
-7.98
-9.21
-10.18
-10.64
-10.57
-10.19
-9.83
-9.71
-9.82
-9.91
-9.69
-9.02
-7.96
-6.74
-5.71
-5.10
-5.06
-5.60
-6.64
-7.96
-9.16
-9.62
-8.76
-6.25
-2.28
2.42
6.82
10.05
11.70
11.96
11.41
10.64
9.97
9.35
8.55
7.41
6.03
4.67
3.58
2.83
2.23
1.46
0.26
-1.41
-3.34
-5.11
-6.28
-6.53
-5.81
-4.37
-2.70
-1.35
-0.77
-1.16
-2.44
-4.25
-5.87
-6.40
-4.90
-0.79
5.86
14.16
22.61
29.57
33.85
35.05
33.57
30.21
25.83
21.07
16.42
12.31
9.25
7.62
7.50
8.52
9.98
11.09
11.31
10.56
9.17
7.75
6.98
7.40
9.16
11.85
14.52
15.83
14.66
10.64
4.40
-2.59
-8.63
-12.49
-13.90
-13.48
-12.29
-11.21
-10.56
-10.17
-9.66
-8.90
-8.08
-7.64
-7.88
-8.82
-10.05
-11.10
-11.61
-11.63
-11.50
-11.60
-12.12
-12.85
-13.38
-13.30
-12.53
-11.31
-10.14
-9.39
-9.19
-9.34
-9.47
-9.30
-8.68
-7.70
-6.50
-5.22
-3.95
-2.75
-1.65
-0.67
0.23
1.19
2.40
3.97
5.85
7.69
9.05
9.54
9.06
7.89
6.54
5.53
5.15
5.31
5.63
5.62
4.91
3.37
1.19
-1.25
-3.55
-5.39
-6.63
-7.37
-7.86
-8.38
-9.11
-9.98
-10.69
-10.81
-10.06
-8.43
-6.32
-4.36
-3.16
-3.08
-4.15
-6.13
-8.68
-11.51
-14.38
-17.20
-19.85
-22.23
-24.28
-25.94
-27.22
-28.14
-28.75
-29.08
-29.24
-29.38
-29.64
-30.08
-30.61
-31.00
-30.92
-29.99
-27.83
-24.10
-18.50
-10.97
-1.75
8.55
19.11
29.10
37.88
45.13
50.70
54.56
56.69
57.15
56.15
54.14
51.80
49.78
48.47
47.82
47.43
46.72
45.25
42.96
40.09
37.09
34.36
32.06
30.10
28.20
26.17
24.07
22.21
21.06
20.90
21.54
22.34
22.41
21.08
18.29
14.68
11.25
8.92
8.02
8.27
9.05
9.93
10.98
12.56
14.73
16.83
17.48
15.29
9.62
1.19
-8.32
-17.01
-23.76
-28.57
-32.20
-35.35
-37.97
-39.28
-38.27
-34.60
-28.99
-23.03
-18.48
-16.46
-16.97
-19.09
-21.47
-22.90
-22.85
-21.52
-19.59
-17.87
-16.93
-16.83
-17.17
-17.25
-16.51
-14.80
-12.51
-10.40
-9.22
-9.30
-10.38
-11.74
-12.58
-12.44
-11.34
-9.63
-7.68
-5.59
-3.24
-0.43
2.84
6.27
9.40
11.82
13.36
14.11
14.19
13.66
12.38
10.16
6.92
2.85
-1.67
-6.15
-10.24
-13.74
-16.56
-18.61
-19.68
-19.61
-18.41
-16.38
-14.06
-12.01
-10.56
-9.68
-9.13
-8.57
-7.83
-6.94
-5.95
-4.82
-3.49
-1.93
-0.19
1.68
3.85
6.75
10.77
15.85
21.22
25.54
27.44
26.33
22.68
17.82
13.31
10.10
8.30
7.37
6.61
5.68
4.66
3.81
3.32
3.08
2.79
2.18
1.11
-0.24
-1.51
-2.32
-2.40
-1.76
-0.70
0.26
0.68
0.39
-0.39
-1.15
-1.39
-0.90
0.15
1.34
2.23
2.66
2.67
2.47
2.23
2.01
1.86
1.91
2.34
3.31
4.81
6.50
7.93
8.78
9.06
9.12
9.31
9.63
9.52
8.17
5.00
0.08
-5.72
-11.07
-14.74
-16.06
-15.12
-12.54
-9.17
-5.81
-3.15
-1.69
-1.64
-2.73
-4.21
-4.99
-4.20
-1.73
1.69
4.74
6.15
5.24
2.13
-2.46
-7.50
-11.61
-12.92
-9.25
0.93
17.20
36.37
52.94
61.24
58.05
44.37
25.05
6.51
-6.31
-11.91
-12.21
-10.69
-10.12
-11.25
-13.07
-14.08
-13.61
-12.26
-11.36
-11.96
-14.19
-17.06
-19.11
-19.13
-16.86
-13.02
-8.95
-5.91
-4.49
-4.43
-4.85
-4.76
-3.61
-1.51
0.82
2.43
2.66
1.37
-0.96
-3.45
-5.18
-5.54
-4.36
-1.93
1.12
4.03
6.13
7.01
6.59
5.21
3.55
2.47
2.69
4.48
7.54
10.99
13.74
14.93
14.24
12.02
9.06
6.19
3.99
2.59
1.73
1.05
0.35
-0.37
-0.89
-0.99
-0.60
0.12
0.80
0.98
0.36
-1.14
-3.26
-5.52
-7.38
-8.48
-8.74
-8.40
-7.86
-7.48
-7.39
-7.52
-7.66
-7.64
-7.40
-7.03
-6.66
-6.32
-5.98
-5.56
-5.09
-4.67
-4.46
-4.52
-4.77
-4.93
-4.74
-4.12
-3.24
-2.48
-2.25
-2.66
-3.49
-4.17
-4.07
-2.74
-0.18
3.21
6.71
9.70
11.75
12.85
13.30
13.57
14.16
15.58
18.29
22.50
27.88
33.56
38.29
41.02
41.42
40.08
38.12
36.45
35.10
33.04
28.67
20.79
9.41
-4.04
-17.25
-27.92
-34.59
-37.03
-36.05
-32.94
-28.94
-24.91
-21.25
-18.02
-15.32
-13.29
-12.15
-11.96
-12.55
-13.37
-13.78
-13.25
-11.63
-9.20
-6.56
-4.43
-3.30
-3.35
-4.32
-5.68
-6.81
-7.26
-6.87
-5.74
-4.16
-2.42
-0.70
0.94
2.55
4.10
5.51
6.61
7.24
7.38
7.15
6.78
6.54
6.60
6.96
7.55
8.22
8.90
9.62
10.48
11.47
12.39
12.82
12.23
10.25
6.89
2.59
-1.93
-5.93
-8.94
-10.92
-12.12
-12.95
-13.74
-14.64
-15.63
-16.56
-17.26
-17.55
-17.35
-16.63
-15.46
-14.02
-12.55
-11.27
-10.33
-9.77
-9.59
-9.75
-10.23
-10.95
-11.80
-12.54
-12.92
-12.74
-11.98
-10.75
-9.28
-7.78
-6.38
-5.08
-3.84
-2.61
-1.41
-0.32
0.57
1.20
1.57
1.76
1.85
1.94
2.11
2.39
2.80
3.31
3.87
4.37
4.72
4.84
4.73
4.44
4.14
3.99
4.13
4.58
5.32
6.22
7.15
7.97
8.61
9.02
9.18
9.15
9.01
8.89
8.86
8.94
9.01
8.89
8.39
7.38
5.83
3.79
1.39
-1.18
-3.67
-5.78
-7.20
-7.76
-7.48
-6.61
-5.55
-4.70
-4.28
-4.30
-4.59
-4.90
-5.03
-4.84
-4.31
-3.53
-2.63
-1.74
-0.95
-0.28
0.35
1.05
1.94
3.03
4.25
5.49
6.65
7.76
8.89
10.10
11.36
12.52
13.37
13.78
13.78
13.57
13.41
13.49
13.84
14.34
14.83
15.26
15.72
16.42
17.46
18.69
19.59
19.47
17.79
14.40
9.59
3.93
-2.05
-8.07
-14.06
-19.97
-25.46
-29.87
-32.44
-32.58
-30.28
-26.10
-20.93
-15.68
-10.98
-7.14
-4.25
-2.35
-1.40
-1.33
-1.88
-2.67
-3.22
-3.14
-2.25
-0.66
1.29
3.23
4.77
5.75
6.17
6.19
5.99
5.75
5.57
5.45
5.35
5.19
4.84
4.18
3.12
1.63
-0.20
-2.19
-4.08
-5.59
-6.59
-7.03
-6.97
-6.56
-5.99
-5.42
-5.02
-4.86
-4.88
-4.92
-4.80
-4.38
-3.67
-2.84
-2.17
-1.90
-2.12
-2.73
-3.48
-4.02
-4.12
-3.67
-2.75
-1.56
-0.37
0.60
1.30
1.80
2.35
3.18
4.44
6.13
8.06
9.93
11.41
12.26
12.42
11.96
11.08
10.02
8.97
8.05
7.26
6.48
5.44
3.80
1.27
-2.26
-6.56
-11.04
-14.92
-17.51
-18.57
-18.41
-17.81
-17.67
-18.58
-20.59
-23.26
-25.88
-27.82
-28.83
-29.03
-28.84
-28.81
-29.39
-30.79
-32.85
-34.96
-36.14
-35.29
-31.55
-24.69
-15.36
-4.95
4.69
11.84
15.38
15.21
12.37
8.80
6.72
7.79
12.42
19.49
26.75
31.86
33.29
30.96
26.00
20.01
14.31
9.43
5.31
1.66
-1.59
-4.15
-5.59
-5.55
-4.04
-1.38
1.82
4.87
7.15
8.22
7.98
6.65
4.76
2.87
1.45
0.66
0.40
0.42
0.48
0.40
0.10
-0.44
-1.28
-2.45
-3.90
-5.51
-7.03
-8.16
-8.69
-8.58
-8.02
-7.36
-7.01
-7.28
-8.27
-9.79
-11.37
-12.38
-12.26
-10.77
-8.09
-4.75
-1.40
1.47
3.72
5.51
7.09
8.64
10.20
11.67
12.91
13.85
14.44
14.65
14.46
13.88
13.02
12.04
11.09
10.26
9.54
8.85
8.06
7.13
6.02
4.73
3.34
1.95
0.74
-0.13
-0.58
-0.68
-0.59
-0.55
-0.74
-1.21
-1.86
-2.54
-3.12
-3.48
-3.60
-3.52
-3.32
-3.11
-2.92
-2.71
-2.33
-1.60
-0.36
1.40
3.51
5.64
7.43
8.69
9.43
9.85
10.25
10.82
11.57
12.36
12.94
13.13
12.90
12.36
11.71
11.17
10.86
10.82
10.94
11.03
10.84
10.11
8.72
6.72
4.33
1.92
-0.17
-1.76
-2.82
-3.52
-4.06
-4.62
-5.23
-5.83
-6.31
-6.57
-6.62
-6.51
-6.37
-6.26
-6.17
-6.04
-5.81
-5.52
-5.27
-5.23
-5.51
-6.08
-6.76
-7.33
-7.58
-7.41
-6.89
-6.15
-5.36
-4.68
-4.19
-3.94
-3.92
-4.10
-4.34
-4.45
-4.27
-3.69
-2.78
-1.76
-0.98
-0.68
-0.93
-1.55
-2.16
-2.38
-1.95
-0.82
0.90
2.94
4.90
6.31
6.71
5.87
3.97
1.60
-0.39
-1.32
-0.94
0.41
2.10
3.50
4.34
4.75
5.03
5.38
5.74
5.82
5.34
4.22
2.66
1.06
-0.28
-1.20
-1.85
-2.49
-3.37
-4.54
-5.78
-6.75
-7.10
-6.74
-5.81
-4.69
-3.75
-3.15
-2.84
-2.57
-2.09
-1.33
-0.41
0.43
0.93
1.06
0.93
0.78
0.82
1.08
1.46
1.80
1.99
2.04
1.99
1.89
1.73
1.45
1.05
0.57
0.12
-0.24
-0.54
-0.89
-1.42
-2.18
-3.08
-3.98
-4.75
-5.30
-5.62
-5.74
-5.65
-5.36
-4.92
-4.39
-3.88
-3.41
-2.94
-2.38
-1.66
-0.86
-0.16
0.21
0.15
-0.26
-0.77
-1.06
-0.93
-0.37
0.50
1.52
2.54
3.47
4.26
4.88
5.26
5.38
5.23
4.88
4.44
4.00
3.65
3.39
3.20
3.03
2.86
2.66
2.48
2.37
2.40
2.59
2.91
3.27
3.58
3.76
3.76
3.60
3.31
2.98
2.70
2.57
2.60
2.76
2.94
3.01
2.88
2.55
2.10
1.67
1.39
1.31
1.43
1.64
1.82
1.88
1.76
1.42
0.90
0.23
-0.50
-1.22
-1.81
-2.20
-2.37
-2.37
-2.30
-2.28
-2.36
-2.53
-2.72
-2.85
-2.88
-2.83
-2.73
-2.63
-2.52
-2.40
-2.32
-2.30
-2.40
-2.62
-2.86
-3.00
-2.96
-2.71
-2.38
-2.11
-2.02
-2.11
-2.29
-2.39
-2.31
-2.07
-1.79
-1.64
-1.71
-1.95
-2.21
-2.28
-2.05
-1.56
-0.96
-0.42
-0.05
0.13
0.22
0.31
0.44
0.61
0.76
0.86
0.90
0.92
0.98
1.12
1.38
1.72
2.06
2.31
2.39
2.29
2.08
1.86
1.72
1.69
1.70
1.67
1.56
1.35
1.12
0.92
0.79
0.74
0.71
0.67
0.61
0.54
0.50
0.48
0.47
0.46
0.42
0.39
0.41
0.53
0.74
0.98
1.18
1.22
1.06
0.72
0.31
-0.00
-0.09
0.09
0.44
0.77
0.86
0.60
0.05
-0.58
-1.06
-1.20
-0.99
-0.56
-0.13
0.09
0.01
-0.31
-0.68
-0.89
-0.80
-0.42
0.13
0.64
0.97
1.05
0.90
0.64
0.37
0.14
-0.00
-0.06
-0.04
0.03
0.12
0.19
0.22
0.18
0.08
-0.05
-0.19
-0.33
-0.42
-0.41
-0.22
0.18
0.76
1.39
1.94
2.29
2.40
2.31
2.07
1.72
1.26
0.68
0.03
-0.57
-0.97
-1.06
-0.85
-0.47
-0.13
-0.00
-0.16
-0.53
-0.95
-1.29
-1.47
-1.52
-1.51
-1.50
-1.51
-1.53
-1.50
-1.40
-1.26
-1.14
-1.12
-1.27
-1.57
-1.96
-2.34
-2.63
-2.79
-2.82
-2.75
-2.61
-2.41
-2.14
-1.80
-1.38
-0.94
-0.56
-0.31
-0.20
-0.20
-0.23
-0.25
-0.24
-0.27
-0.38
-0.60
-0.86
-1.05
-1.07
-0.91
-0.65
-0.45
-0.42
-0.60
-0.92
-1.29
-1.60
-1.79
-1.86
-1.82
-1.70
-1.56
-1.48
-1.53
-1.76
-2.10
-2.39
-2.45
-2.13
-1.44
-0.53
0.36
1.04
1.42
1.52
1.41
1.20
0.94
0.69
0.49
0.40
0.41
0.49
0.55
0.55
0.49
0.48
0.59
0.82
1.04
1.07
0.75
0.07
-0.85
-1.83
-2.70
-3.44
-4.08
-4.73
-5.51
-6.48
-7.68
-9.06
-10.53
-11.95
-13.19
-14.23
-15.19
-16.29
-17.73
-19.54
-21.55
-23.49
-25.11
-26.45
-27.79
-29.60
-32.30
-36.10
-40.87
-46.17
-51.47
-56.32
-60.54
-64.30
-68.12
-72.71
-78.72
-86.36
-95.14
-103.79
-110.50
-113.57
-112.00
-106.15
-97.76
-89.43
-83.60
-81.60
-83.05
-85.93
-87.15
-83.47
-72.32
-52.51
-24.57
9.34
45.89
81.36
112.49
137.23
154.99
166.50
173.24
176.90
178.94
180.45
182.20
184.63
187.80
191.21
193.93
194.82
193.03
188.31
181.36
173.72
167.60
165.26
168.40
177.21
189.71
201.75
207.75
202.13
181.02
143.59
92.52
33.55
-26.02
-79.12
-120.54
-147.89
-161.64
-164.37
-159.65
-150.92
-140.82
-131.03
-122.54
-115.94
-111.52
-109.13
-107.92
-106.55
-103.66
-98.57
-91.66
-84.18
-77.54
-72.71
-69.70
-67.68
-65.52
-62.30
-57.69
-51.92
-45.61
-39.52
-34.33
-30.52
-28.22
-27.24
-27.01
-26.84
-26.27
-25.25
-24.21
-23.72
-24.05
-24.80
-25.03
-23.65
-20.03
-14.42
-7.93
-2.13
1.58
2.53
0.92
-2.26
-5.48
-7.03
-5.21
1.39
13.66
31.65
54.42
80.12
106.37
130.79
151.63
167.88
178.94
183.97
181.36
169.06
145.73
112.10
71.75
30.48
-5.56
-32.10
-48.18
-56.02
-59.33
-61.29
-63.18
-64.48
-64.00
-61.27
-57.17
-53.49
-51.93
-53.10
-56.19
-59.43
-60.92
-59.47
-55.19
-49.41
-44.15
-41.37
-42.11
-46.06
-51.62
-56.56
-58.98
-58.09
-54.63
-50.50
-48.00
-48.78
-53.10
-59.62
-65.90
-69.19
-67.37
-59.58
-46.48
-30.04
-13.24
0.37
7.23
4.73
-7.51
-26.51
-45.99
-58.00
-55.91
-37.31
-5.37
32.43
67.56
94.06
110.43
118.92
123.05
124.99
124.70
121.02
113.74
104.85
97.97
96.36
100.87
109.30
117.37
120.98
118.36
110.75
101.69
95.42
95.01
101.42
113.14
126.44
136.09
136.54
123.48
95.48
54.98
7.92
-37.95
-75.60
-100.86
-113.32
-115.54
-111.32
-103.94
-95.34
-86.44
-77.97
-71.01
-66.74
-65.71
-67.15
-69.05
-68.92
-65.08
-57.52
-47.90
-38.79
-32.39
-29.56
-29.59
-30.73
-31.20
-30.00
-27.18
-23.55
-20.09
-17.44
-15.71
-14.62
-13.73
-12.76
-11.62
-10.38
-9.15
-8.01
-6.95
-5.98
-5.08
-4.29
-3.63
-3.09
-2.63
-2.17
-1.70
-1.22
-0.76
-0.39
-0.19
-0.20
-0.48
-0.98
-1.59
-2.13
-2.41
-2.30
-1.83
-1.18
-0.58
-0.16
0.05
0.14
0.22
0.27
0.19
-0.17
-0.84
-1.69
-2.43
-2.72
-2.37
-1.39
0.02
1.60
3.12
4.45
5.56
6.42
6.93
6.98
6.45
5.38
3.93
2.35
0.92
-0.17
-0.83
-1.07
-0.96
-0.58
-0.08
0.36
0.51
0.20
-0.59
-1.64
-2.60
-3.11
-3.01
-2.38
-1.50
-0.72
-0.27
-0.27
-0.73
-1.57
-2.70
-3.93
-5.01
-5.70
-5.83
-5.41
-4.61
-3.71
-2.94
-2.41
-2.06
-1.70
-1.14
-0.25
0.95
2.29
3.54
4.49
5.02
5.12
4.90
4.44
3.75
2.73
1.32
-0.44
-2.34
-4.04
-5.24
-5.83
-5.97
-5.99
-6.21
-6.73
-7.38
-7.78
-7.56
-6.56
-4.93
-3.09
-1.53
-0.59
-0.38
-0.74
-1.36
-1.95
-2.28
-2.26
-1.90
-1.27
-0.46
0.39
1.14
1.69
1.99
2.10
2.18
2.41
2.86
3.50
4.17
4.68
4.96
5.07
5.12
5.23
5.38
5.49
5.46
5.29
5.12
5.09
5.28
5.59
5.84
5.87
5.65
5.28
4.91
4.63
4.41
4.17
3.89
3.64
3.57
3.80
4.34
5.06
5.79
6.41
6.89
7.28
7.63
7.89
7.98
7.78
7.21
6.31
5.16
3.92
2.71
1.65
0.81
0.20
-0.22
-0.53
-0.86
-1.33
-2.02
-2.92
-3.97
-5.03
-5.98
-6.74
-7.29
-7.69
-8.04
-8.39
-8.80
-9.25
-9.74
-10.27
-10.88
-11.58
-12.35
-13.08
-13.64
-13.92
-13.88
-13.63
-13.31
-13.14
-13.26
-13.70
-14.38
-15.14
-15.80
-16.29
-16.62
-16.86
-17.02
-17.00
-16.65
-15.88
-14.72
-13.32
-11.79
-10.02
-7.68
-4.38
0.08
5.49
11.20
16.42
20.52
23.27
24.86
25.67
26.01
25.99
25.55
24.57
23.05
21.17
19.20
17.46
16.17
15.36
14.88
14.46
13.82
12.81
11.51
10.13
8.96
8.16
7.75
7.66
7.80
8.16
8.78
9.65
10.64
11.48
11.92
11.81
11.21
10.32
9.38
8.60
8.10
7.84
7.73
7.60
7.25
6.48
5.10
3.01
0.24
-3.08
-6.68
-10.24
-13.42
-15.91
-17.52
-18.19
-18.03
-17.25
-16.09
-14.77
-13.50
-12.45
-11.75
-11.44
-11.44
-11.56
-11.63
-11.55
-11.38
-11.26
-11.38
-11.89
-12.87
-14.36
-16.31
-18.52
-20.58
-21.96
-22.17
-21.02
-18.73
-15.83
-12.94
-10.43
-8.32
-6.38
-4.44
-2.55
-1.08
-0.48
-1.08
-2.81
-5.11
-7.04
-7.57
-5.95
-2.02
3.61
9.81
15.42
19.79
23.02
25.83
28.98
32.80
36.87
40.31
42.22
42.11
39.94
36.04
30.82
24.64
17.96
11.41
5.74
1.52
-1.14
-2.75
-4.13
-5.97
-8.41
-10.99
-12.97
-13.72
-13.06
-11.30
-8.99
-6.65
-4.61
-2.97
-1.78
-1.14
-1.16
-1.94
-3.44
-5.45
-7.63
-9.62
-11.06
-11.72
-11.45
-10.26
-8.29
-5.83
-3.24
-0.93
0.78
1.66
1.67
0.93
-0.31
-1.73
-3.02
-3.92
-4.26
-4.00
-3.22
-2.13
-0.95
0.16
1.13
2.02
2.95
3.95
4.93
5.70
6.01
5.72
4.91
3.76
2.54
1.41
0.41
-0.53
-1.50
-2.47
-3.32
-3.87
-4.01
-3.78
-3.38
-3.03
-2.90
-2.99
-3.17
-3.33
-3.43
-3.53
-3.74
-4.10
-4.54
-4.91
-5.10
-5.10
-5.05
-5.09
-5.32
-5.74
-6.24
-6.75
-7.21
-7.67
-8.17
-8.71
-9.25
-9.69
-9.99
-10.16
-10.28
-10.43
-10.67
-10.94
-11.17
-11.22
-11.03
-10.61
-10.00
-9.26
-8.39
-7.34
-6.04
-4.43
-2.49
-0.31
2.01
4.33
6.52
8.51
10.27
11.91
13.66
15.80
18.50
21.71
25.05
27.88
29.44
29.16
26.79
22.56
17.03
10.95
5.08
0.00
-3.98
-6.85
-8.78
-10.03
-10.80
-11.12
-10.96
-10.27
-9.20
-8.05
-7.18
-6.83
-7.11
-7.90
-9.00
-10.11
-10.85
-10.72
-9.19
-5.91
-0.92
5.14
11.24
16.28
19.54
20.92
20.83
19.89
18.57
17.05
15.24
13.06
10.65
8.36
6.70
6.01
6.34
7.32
8.33
8.67
7.90
6.02
3.43
0.79
-1.36
-2.79
-3.70
-4.62
-6.10
-8.39
-11.34
-14.43
-17.00
-18.51
-18.79
-18.10
-17.02
-16.28
-16.48
-17.89
-20.34
-23.16
-25.46
-26.41
-25.67
-23.60
-21.21
-19.81
-20.34
-22.90
-26.57
-29.71
-30.62
-28.23
-22.54
-14.68
-6.69
-1.09
-0.10
-4.80
-14.50
-26.72
-37.90
-44.82
-45.95
-42.11
-36.07
-31.34
-30.63
-34.72
-41.95
-48.54
-49.70
-41.26
-21.29
8.93
44.83
80.21
109.33
129.07
139.84
144.74
147.59
150.77
154.12
155.24
151.10
139.89
122.06
100.38
78.74
60.79
48.80
43.17
42.75
45.39
48.50
49.40
45.67
35.65
19.01
-2.80
-26.79
-49.17
-66.64
-77.34
-81.23
-79.51
-74.08
-66.80
-59.23
-52.57
-47.71
-44.98
-44.11
-44.20
-44.03
-42.58
-39.42
-34.85
-29.81
-25.44
-22.59
-21.51
-21.80
-22.51
-22.64
-21.44
-18.77
-15.13
-11.43
-8.62
-7.29
-7.49
-8.70
-10.11
-11.00
-10.93
-9.95
-8.46
-6.98
-6.06
-6.13
-7.51
-10.30
-14.24
-18.51
-21.81
-22.68
-20.08
-13.96
-5.38
3.81
11.69
16.92
19.06
18.33
15.24
10.21
3.62
-3.99
-11.70
-18.16
-21.99
-22.16
-18.40
-11.28
-2.05
7.60
16.00
21.85
24.56
24.42
22.49
20.20
18.86
19.22
21.30
24.56
28.22
31.38
33.10
32.41
28.50
21.12
11.07
0.26
-8.67
-13.40
-12.97
-8.29
-1.78
3.64
5.85
4.37
0.31
-4.33
-7.76
-9.14
-8.69
-7.35
-6.05
-5.30
-5.01
-4.83
-4.49
-4.06
-3.87
-4.31
-5.49
-7.08
-8.48
-9.07
-8.54
-7.10
-5.34
-3.93
-3.36
-3.65
-4.41
-5.04
-5.07
-4.37
-3.18
-1.99
-1.26
-1.21
-1.77
-2.60
-3.30
-3.60
-3.40
-2.80
-1.99
-1.19
-0.56
-0.17
-0.03
-0.08
-0.25
-0.46
-0.67
-0.87
-1.07
-1.28
-1.50
-1.71
-1.86
-1.90
-1.77
-1.50
-1.13
-0.80
-0.61
-0.65
-0.91
-1.30
-1.66
-1.86
-1.85
-1.67
-1.42
-1.17
-0.96
-0.74
-0.45
-0.06
0.40
0.84
1.15
1.30
1.30
1.23
1.21
1.28
1.45
1.64
1.78
1.77
1.60
1.27
0.83
0.35
-0.09
-0.41
-0.59
-0.59
-0.45
-0.18
0.14
0.46
0.69
0.75
0.58
0.18
-0.38
-0.96
-1.40
-1.59
-1.47
-1.11
-0.62
-0.16
0.16
0.28
0.21
-0.02
-0.31
-0.59
-0.78
-0.84
-0.77
-0.61
-0.43
-0.29
-0.19
-0.14
-0.07
0.05
0.22
0.39
0.47
0.39
0.13
-0.20
-0.48
-0.58
-0.48
-0.27
-0.05
0.06
0.04
-0.07
-0.19
-0.26
-0.25
-0.19
-0.10
0.01
0.10
0.15
0.13
0.02
-0.16
-0.33
-0.39
-0.29
-0.06
0.17
0.26
0.13
-0.19
-0.56
-0.79
-0.80
-0.64
-0.47
-0.46
-0.66
-0.99
-1.28
-1.42
-1.38
-1.25
-1.13
-1.05
-0.93
-0.67
-0.17
0.50
1.20
1.73
1.94
1.83
1.53
1.22
1.02
0.98
1.03
1.06
1.00
0.84
0.63
0.44
0.30
0.20
0.08
-0.06
-0.18
-0.22
-0.10
0.14
0.43
0.69
0.85
0.93
0.96
1.01
1.09
1.17
1.22
1.22
1.16
1.08
0.98
0.89
0.79
0.72
0.68
0.70
0.78
0.86
0.86
0.75
0.56
0.32
0.12
-0.03
-0.16
-0.32
-0.50
-0.68
-0.77
-0.74
-0.58
-0.39
-0.27
-0.28
-0.43
-0.64
-0.82
-0.92
-0.91
-0.82
-0.69
-0.57
-0.48
-0.42
-0.41
-0.42
-0.42
-0.36
-0.21
0.04
0.31
0.51
0.55
0.41
0.16
-0.08
-0.19
-0.14
0.02
0.17
0.22
0.13
-0.04
-0.20
-0.26
-0.21
-0.08
0.05
0.07
-0.07
-0.33
-0.63
-0.83
-0.82
-0.58
-0.19
0.18
0.37
0.31
0.06
-0.21
-0.31
-0.15
0.21
0.61
0.83
0.76
0.45
0.10
-0.11
-0.08
0.11
0.33
0.43
0.38
0.24
0.15
0.18
0.32
0.47
0.57
0.55
0.44
0.29
0.13
-0.03
-0.22
-0.42
-0.62
-0.75
-0.78
-0.68
-0.46
-0.18
0.11
0.33
0.43
0.37
0.17
-0.09
-0.34
-0.47
-0.46
-0.36
-0.27
-0.28
-0.40
-0.57
-0.66
-0.58
-0.32
0.01
0.26
0.33
0.22
0.06
-0.01
0.11
0.38
0.67
0.82
0.71
0.36
-0.07
-0.40
-0.49
-0.33
-0.04
0.22
0.32
0.28
0.17
0.13
0.20
0.33
0.42
0.34
0.07
-0.31
-0.65
-0.82
-0.76
-0.50
-0.14
0.19
0.43
0.53
0.52
0.42
0.28
0.15
0.05
0.00
-0.02
-0.04
-0.11
-0.22
-0.30
-0.30
-0.15
0.09
0.32
0.44
0.39
0.23
0.07
-0.01
-0.03
-0.08
-0.23
-0.49
-0.77
-0.96
-0.97
-0.81
-0.55
-0.27
-0.01
0.26
0.54
0.80
0.94
0.89
0.63
0.26
-0.08
-0.26
-0.24
-0.07
0.13
0.29
0.36
0.38
0.38
0.38
0.37
0.30
0.17
-0.02
-0.22
-0.39
-0.49
-0.52
-0.51
-0.48
-0.45
-0.42
-0.37
-0.28
-0.15
0.00
0.18
0.35
0.49
0.62
0.70
0.72
0.68
0.57
0.44
0.32
0.27
0.28
0.32
0.29
0.11
-0.23
-0.64
-1.01
-1.19
-1.13
-0.88
-0.56
-0.29
-0.14
-0.09
-0.10
-0.09
-0.06
-0.05
-0.09
-0.21
-0.34
-0.40
-0.30
-0.04
0.29
0.57
0.69
0.62
0.43
0.21
0.08
0.04
0.05
0.02
-0.09
-0.23
-0.31
-0.26
-0.09
0.12
0.25
0.24
0.11
-0.04
-0.15
-0.18
-0.15
-0.12
-0.14
-0.21
-0.25
-0.23
-0.08
0.15
0.42
0.64
0.75
0.73
0.62
0.47
0.35
0.26
0.17
0.05
-0.08
-0.18
-0.16
0.00
0.25
0.48
0.59
0.53
0.35
0.16
0.03
-0.01
0.01
-0.01
-0.11
-0.32
-0.58
-0.81
-0.92
-0.85
-0.63
-0.33
-0.06
0.08
0.05
-0.12
-0.34
-0.52
-0.57
-0.48
-0.30
-0.09
0.03
0.03
-0.11
-0.33
-0.55
-0.72
-0.77
-0.72
-0.57
-0.33
-0.00
0.38
0.75
1.02
1.13
1.04
0.82
0.55
0.37
0.32
0.38
0.50
0.59
0.60
0.50
0.33
0.13
-0.03
-0.08
-0.04
0.08
0.18
0.21
0.12
-0.06
-0.25
-0.38
-0.40
-0.31
-0.18
-0.05
0.02
0.04
0.05
0.06
0.09
0.09
0.01
-0.15
-0.37
-0.55
-0.62
-0.52
-0.31
-0.04
0.20
0.33
0.37
0.31
0.18
0.03
-0.08
-0.11
-0.01
0.22
0.50
0.73
0.80
0.68
0.42
0.10
-0.18
-0.37
-0.45
-0.45
-0.36
-0.19
0.05
0.34
0.58
0.69
0.64
0.45
0.20
-0.04
-0.19
-0.25
-0.27
-0.28
-0.27
-0.21
-0.09
0.11
0.33
0.52
0.59
0.52
0.30
0.00
-0.31
-0.57
-0.75
-0.87
-0.96
-1.01
-1.00
-0.89
-0.63
-0.20
0.30
0.76
1.05
1.07
0.83
0.38
-0.14
-0.61
-0.91
-0.97
-0.78
-0.39
0.08
0.48
0.70
0.72
0.57
0.35
0.12
-0.06
-0.16
-0.20
-0.17
-0.05
0.11
0.25
0.32
0.27
0.12
-0.08
-0.24
-0.32
-0.33
-0.31
-0.28
-0.24
-0.14
0.02
0.23
0.43
0.56
0.56
0.42
0.20
-0.04
-0.24
-0.35
-0.37
-0.30
-0.18
-0.04
0.06
0.10
0.07
-0.01
-0.07
-0.06
0.04
0.21
0.34
0.35
0.19
-0.08
-0.35
-0.50
-0.45
-0.24
0.06
0.33
0.47
0.49
0.39
0.25
0.10
-0.04
-0.18
-0.33
-0.49
-0.67
-0.84
-0.92
-0.88
-0.70
-0.39
-0.05
0.23
0.36
0.34
0.24
0.17
0.21
0.37
0.55
0.65
0.58
0.37
0.11
-0.07
-0.07
0.11
0.41
0.73
0.94
1.00
0.88
0.61
0.22
-0.19
-0.55
-0.77
-0.81
-0.72
-0.56
-0.42
-0.35
-0.35
-0.37
-0.33
-0.21
-0.04
0.11
0.20
0.21
0.18
0.18
0.26
0.41
0.55
0.58
0.41
0.05
-0.40
-0.79
-0.99
-0.93
-0.60
-0.13
0.36
0.70
0.79
0.62
0.24
-0.24
-0.66
-0.89
-0.85
-0.53
-0.04
0.49
0.89
1.05
0.91
0.50
-0.05
-0.58
-0.95
-1.06
-0.90
-0.56
-0.12
0.32
0.71
0.98
1.09
1.01
0.75
0.36
-0.05
-0.35
-0.46
-0.37
-0.14
0.12
0.34
0.43
0.41
0.30
0.15
0.01
-0.10
-0.14
-0.13
-0.07
-0.02
-0.01
-0.09
-0.25
-0.50
-0.77
-0.98
-1.03
-0.86
-0.49
-0.05
0.30
0.42
0.31
0.07
-0.13
-0.14
0.04
0.31
0.52
0.58
0.47
0.29
0.15
0.13
0.21
0.34
0.43
0.47
0.46
0.39
0.26
0.09
-0.08
-0.20
-0.19
-0.03
0.23
0.49
0.66
0.68
0.56
0.37
0.18
0.04
-0.05
-0.11
-0.17
-0.25
-0.34
-0.43
-0.51
-0.58
-0.64
-0.72
-0.81
-0.89
-0.93
-0.89
-0.75
-0.50
-0.18
0.18
0.52
0.80
0.99
1.03
0.89
0.61
0.27
0.03
0.02
0.25
0.60
0.89
0.95
0.71
0.28
-0.16
-0.44
-0.51
-0.46
-0.41
-0.46
-0.61
-0.76
-0.80
-0.70
-0.50
-0.31
-0.21
-0.18
-0.15
-0.03
0.23
0.56
0.84
0.92
0.75
0.38
-0.06
-0.42
-0.59
-0.57
-0.41
-0.21
-0.05
0.06
0.13
0.19
0.22
0.17
0.01
-0.25
-0.57
-0.82
-0.90
-0.78
-0.50
-0.18
0.08
0.23
0.30
0.33
0.36
0.37
0.34
0.19
-0.04
-0.28
-0.40
-0.30
0.04
0.54
1.03
1.33
1.32
1.01
0.52
0.03
-0.32
-0.44
-0.38
-0.25
-0.18
-0.25
-0.44
-0.65
-0.76
-0.72
-0.51
-0.22
0.08
0.29
0.42
0.47
0.49
0.50
0.48
0.46
0.43
0.43
0.45
0.44
0.34
0.11
-0.22
-0.54
-0.74
-0.75
-0.60
-0.40
-0.27
-0.25
-0.29
-0.28
-0.14
0.13
0.46
0.75
0.92
0.95
0.86
0.70
0.49
0.25
-0.01
-0.25
-0.44
-0.54
-0.53
-0.44
-0.32
-0.21
-0.12
-0.02
0.09
0.22
0.32
0.34
0.24
0.06
-0.15
-0.32
-0.43
-0.47
-0.49
-0.51
-0.51
-0.50
-0.45
-0.40
-0.38
-0.41
-0.49
-0.58
-0.63
-0.58
-0.38
-0.04
0.40
0.83
1.10
1.10
0.81
0.34
-0.14
-0.41
-0.40
-0.13
0.24
0.55
0.68
0.63
0.47
0.31
0.20
0.17
0.19
0.23
0.25
0.24
0.16
0.01
-0.20
-0.42
-0.57
-0.57
-0.37
0.01
0.48
0.91
1.18
1.18
0.91
0.46
-0.05
-0.45
-0.63
-0.57
-0.35
-0.11
0.03
0.03
-0.09
-0.23
-0.33
-0.34
-0.31
-0.27
-0.28
-0.33
-0.40
-0.46
-0.51
-0.54
-0.53
-0.48
-0.35
-0.16
0.05
0.22
0.30
0.28
0.16
-0.01
-0.19
-0.34
-0.42
-0.41
-0.28
-0.09
0.06
0.08
-0.05
-0.28
-0.48
-0.53
-0.43
-0.26
-0.15
-0.15
-0.22
-0.22
-0.04
0.31
0.70
0.98
1.02
0.84
0.53
0.24
0.04
-0.02
0.04
0.21
0.44
0.69
0.87
0.93
0.84
0.59
0.25
-0.09
-0.36
-0.53
-0.59
-0.60
-0.60
-0.62
-0.65
-0.64
-0.53
-0.30
0.02
0.32
0.53
0.59
0.50
0.33
0.16
0.05
0.01
0.02
0.07
0.17
0.32
0.51
0.70
0.81
0.79
0.64
0.44
0.27
0.20
0.23
0.34
0.44
0.45
0.32
0.06
-0.30
-0.67
-0.97
-1.10
-1.02
-0.77
-0.43
-0.09
0.18
0.36
0.46
0.49
0.43
0.28
0.04
-0.23
-0.43
-0.48
-0.35
-0.11
0.14
0.27
0.22
0.02
-0.23
-0.40
-0.39
-0.20
0.10
0.36
0.44
0.32
0.08
-0.15
-0.23
-0.14
0.06
0.24
0.29
0.20
0.02
-0.13
-0.20
-0.17
-0.10
-0.10
-0.22
-0.47
-0.79
-1.08
-1.21
-1.10
-0.73
-0.18
0.39
0.80
0.92
0.71
0.25
-0.34
-0.92
-1.37
-1.61
-1.60
-1.31
-0.76
-0.04
0.73
1.38
1.78
1.86
1.68
1.33
0.92
0.56
0.27
0.05
-0.12
-0.21
-0.21
-0.11
0.10
0.38
0.65
0.83
0.85
0.67
0.31
-0.15
-0.59
-0.89
-1.01
-0.97
-0.86
-0.76
-0.69
-0.64
-0.54
-0.40
-0.26
-0.26
-0.46
-0.87
-1.33
-1.61
-1.52
-0.94
0.08
1.40
2.77
3.93
4.63
4.73
4.16
3.07
1.70
0.39
-0.60
-1.16
-1.34
-1.28
-1.13
-0.95
-0.72
-0.43
-0.10
0.18
0.30
0.22
-0.05
-0.40
-0.73
-0.97
-1.11
-1.13
-1.05
-0.86
-0.61
-0.34
-0.12
0.02
0.05
0.03
-0.02
-0.06
-0.05
0.06
0.29
0.62
0.97
1.19
1.12
0.72
0.04
-0.71
-1.31
-1.63
-1.63
-1.40
-1.07
-0.75
-0.47
-0.24
-0.05
0.10
0.16
0.13
0.01
-0.18
-0.35
-0.45
-0.42
-0.24
0.04
0.34
0.53
0.53
0.32
-0.03
-0.42
-0.72
-0.87
-0.87
-0.76
-0.62
-0.46
-0.31
-0.12
0.10
0.33
0.52
0.58
0.46
0.17
-0.21
-0.52
-0.58
-0.30
0.31
1.09
1.81
2.28
2.37
2.15
1.74
1.31
0.93
0.60
0.26
-0.14
-0.55
-0.86
-0.91
-0.58
0.07
0.86
1.48
1.73
1.54
1.03
0.49
0.14
0.08
0.25
0.43
0.44
0.22
-0.13
-0.46
-0.64
-0.66
-0.62
-0.65
-0.82
-1.11
-1.42
-1.64
-1.68
-1.55
-1.29
-1.02
-0.82
-0.74
-0.77
-0.83
-0.83
-0.71
-0.47
-0.22
-0.08
-0.14
-0.38
-0.69
-0.88
-0.86
-0.62
-0.25
0.12
0.43
0.67
0.88
1.07
1.20
1.21
1.06
0.77
0.45
0.25
0.24
0.44
0.78
1.11
1.29
1.24
0.98
0.62
0.30
0.13
0.11
0.20
0.28
0.28
0.19
0.03
-0.17
-0.40
-0.67
-0.97
-1.26
-1.45
-1.43
-1.17
-0.74
-0.27
0.08
0.22
0.17
0.00
-0.15
-0.19
-0.13
-0.01
0.08
0.09
0.02
-0.10
-0.19
-0.24
-0.25
-0.24
-0.22
-0.20
-0.20
-0.23
-0.31
-0.40
-0.45
-0.37
-0.14
0.16
0.42
0.51
0.37
0.08
-0.20
-0.32
-0.22
0.05
0.36
0.58
0.65
0.59
0.46
0.33
0.23
0.16
0.09
0.01
-0.05
-0.06
0.01
0.16
0.34
0.50
0.58
0.59
0.53
0.46
0.39
0.33
0.26
0.17
0.07
-0.01
-0.04
-0.04
-0.05
-0.12
-0.26
-0.44
-0.57
-0.58
-0.42
-0.13
0.21
0.48
0.62
0.61
0.47
0.26
0.06
-0.09
-0.14
-0.11
0.00
0.17
0.35
0.50
0.57
0.53
0.39
0.17
-0.06
-0.26
-0.41
-0.49
-0.54
-0.59
-0.67
-0.74
-0.79
-0.78
-0.67
-0.46
-0.19
0.12
0.39
0.56
0.58
0.46
0.20
-0.12
-0.44
-0.68
-0.78
-0.71
-0.50
-0.21
0.07
0.27
0.32
0.22
0.00
-0.25
-0.47
-0.57
-0.55
-0.41
-0.19
0.05
0.30
0.51
0.70
0.86
1.00
1.11
1.17
1.16
1.09
0.97
0.83
0.69
0.54
0.37
0.15
-0.11
-0.37
-0.59
-0.72
-0.74
-0.64
-0.47
-0.28
-0.12
-0.03
0.00
-0.03
-0.09
-0.16
-0.25
-0.38
-0.54
-0.73
-0.86
-0.84
-0.64
-0.31
0.03
0.21
0.15
-0.09
-0.35
-0.44
-0.27
0.11
0.48
0.66
0.54
0.19
-0.20
-0.47
-0.53
-0.41
-0.24
-0.10
0.01
0.13
0.31
0.56
0.78
0.87
0.77
0.52
0.26
0.10
0.11
0.22
0.33
0.37
0.31
0.22
0.18
0.21
0.29
0.36
0.35
0.27
0.17
0.14
0.19
0.31
0.44
0.50
0.49
0.40
0.26
0.09
-0.09
-0.28
-0.48
-0.65
-0.80
-0.90
-0.92
-0.86
-0.68
-0.42
-0.12
0.12
0.19
0.05
-0.26
-0.62
-0.87
-0.92
-0.77
-0.53
-0.31
-0.22
-0.23
-0.27
-0.23
-0.05
0.24
0.58
0.86
1.03
1.07
0.99
0.79
0.50
0.15
-0.21
-0.51
-0.67
-0.64
-0.40
-0.01
0.43
0.77
0.86
0.68
0.29
-0.17
-0.51
-0.61
-0.49
-0.25
-0.01
0.11
0.12
0.07
0.02
-0.01
-0.06
-0.17
-0.38
-0.63
-0.82
-0.84
-0.62
-0.22
0.23
0.56
0.66
0.53
0.26
-0.00
-0.17
-0.23
-0.25
-0.27
-0.31
-0.27
-0.07
0.31
0.78
1.19
1.39
1.32
1.03
0.67
0.36
0.16
0.06
-0.00
-0.07
-0.10
-0.06
0.10
0.32
0.50
0.51
0.31
-0.06
-0.47
-0.76
-0.83
-0.66
-0.33
0.02
0.28
0.40
0.38
0.28
0.14
0.01
-0.11
-0.22
-0.33
-0.41
-0.43
-0.35
-0.17
0.06
0.29
0.41
0.38
0.18
-0.14
-0.47
-0.70
-0.78
-0.70
-0.52
-0.35
-0.26
-0.26
-0.29
-0.28
-0.22
-0.11
-0.02
-0.00
-0.08
-0.22
-0.39
-0.54
-0.64
-0.69
-0.68
-0.64
-0.58
-0.53
-0.48
-0.39
-0.21
0.10
0.49
0.85
1.05
0.98
0.68
0.29
-0.05
-0.20
-0.19
-0.10
-0.06
-0.11
-0.21
-0.26
-0.19
0.02
0.32
0.63
0.89
1.06
1.13
1.12
1.06
0.97
0.86
0.74
0.60
0.43
0.22
-0.01
-0.27
-0.49
-0.64
-0.68
-0.59
-0.40
-0.14
0.11
0.29
0.36
0.32
0.24
0.17
0.12
0.10
0.08
0.02
-0.06
-0.13
-0.16
-0.12
-0.05
-0.01
-0.04
-0.15
-0.31
-0.44
-0.51
-0.49
-0.41
-0.31
-0.22
-0.13
-0.03
0.10
0.25
0.37
0.43
0.41
0.32
0.21
0.08
-0.05
-0.19
-0.33
-0.41
-0.39
-0.25
-0.01
0.23
0.41
0.47
0.42
0.32
0.22
0.15
0.09
0.04
-0.02
-0.07
-0.12
-0.17
-0.24
-0.36
-0.49
-0.58
-0.59
-0.51
-0.38
-0.26
-0.24
-0.33
-0.49
-0.66
-0.75
-0.73
-0.57
-0.29
0.09
0.52
0.91
1.15
1.19
1.02
0.73
0.42
0.20
0.11
0.08
0.05
-0.05
-0.23
-0.43
-0.60
-0.66
-0.63
-0.52
-0.36
-0.17
0.04
0.28
0.54
0.79
0.95
0.98
0.85
0.60
0.31
0.08
-0.02
-0.00
0.06
0.07
-0.05
-0.24
-0.42
-0.50
-0.45
-0.31
-0.16
-0.05
0.01
0.07
0.15
0.25
0.32
0.29
0.15
-0.11
-0.43
-0.72
-0.93
-1.01
-0.94
-0.73
-0.42
-0.05
0.32
0.64
0.87
1.00
1.01
0.88
0.64
0.37
0.14
0.02
0.05
0.18
0.36
0.54
0.66
0.72
0.73
0.69
0.58
0.43
0.24
0.02
-0.21
-0.42
-0.62
-0.77
-0.87
-0.86
-0.74
-0.52
-0.27
-0.06
0.04
0.01
-0.12
-0.29
-0.46
-0.58
-0.66
-0.68
-0.64
-0.54
-0.38
-0.20
-0.03
0.11
0.20
0.25
0.29
0.30
0.27
0.19
0.07
-0.05
-0.12
-0.12
-0.07
0.01
0.10
0.18
0.25
0.30
0.31
0.29
0.23
0.13
0.00
-0.15
-0.32
-0.45
-0.50
-0.39
-0.08
0.39
0.91
1.30
1.42
1.21
0.73
0.14
-0.39
-0.72
-0.82
-0.74
-0.58
-0.41
-0.26
-0.13
-0.01
0.07
0.11
0.08
0.02
0.01
0.10
0.32
0.59
0.81
0.87
0.76
0.52
0.27
0.10
0.02
-0.01
-0.07
-0.22
-0.45
-0.67
-0.79
-0.76
-0.58
-0.33
-0.10
0.05
0.13
0.15
0.15
0.13
0.10
0.01
-0.13
-0.32
-0.50
-0.57
-0.50
-0.26
0.08
0.41
0.59
0.54
0.27
-0.13
-0.56
-0.88
-1.06
-1.12
-1.08
-1.02
-0.96
-0.90
-0.83
-0.77
-0.75
-0.78
-0.88
-0.99
-1.06
-1.00
-0.77
-0.40
0.02
0.38
0.60
0.64
0.55
0.42
0.33
0.34
0.45
0.65
0.88
1.08
1.19
1.18
1.06
0.86
0.67
0.55
0.55
0.62
0.72
0.74
0.66
0.48
0.23
-0.03
-0.24
-0.36
-0.36
-0.22
0.04
0.35
0.63
0.78
0.74
0.51
0.14
-0.29
-0.69
-0.97
-1.07
-0.93
-0.55
-0.02
0.57
1.06
1.36
1.42
1.27
0.95
0.55
0.13
-0.24
-0.49
-0.57
-0.47
-0.25
0.00
0.18
0.20
0.07
-0.18
-0.44
-0.58
-0.54
-0.29
0.09
0.44
0.65
0.64
0.45
0.18
-0.02
-0.08
0.01
0.18
0.35
0.46
0.51
0.50
0.41
0.26
0.05
-0.20
-0.42
-0.55
-0.55
-0.43
-0.25
-0.06
0.09
0.16
0.12
-0.02
-0.23
-0.46
-0.63
-0.70
-0.66
-0.55
-0.44
-0.38
-0.37
-0.37
-0.33
-0.23
-0.09
0.02
0.07
0.06
0.02
-0.01
-0.01
-0.00
-0.03
-0.12
-0.23
-0.31
-0.27
-0.08
0.22
0.54
0.77
0.82
0.63
0.25
-0.23
-0.64
-0.88
-0.86
-0.64
-0.31
0.02
0.26
0.42
0.52
0.57
0.54
0.41
0.21
-0.00
-0.10
-0.03
0.17
0.42
0.56
0.51
0.29
-0.03
-0.37
-0.66
-0.87
-0.99
-0.99
-0.85
-0.57
-0.20
0.20
0.54
0.80
0.98
1.07
1.06
0.93
0.64
0.22
-0.26
-0.67
-0.90
-0.88
-0.62
-0.22
0.19
0.47
0.54
0.39
0.10
-0.19
-0.34
-0.28
-0.03
0.30
0.56
0.65
0.56
0.39
0.26
0.22
0.26
0.28
0.21
0.05
-0.10
-0.15
-0.01
0.25
0.52
0.64
0.57
0.35
0.12
-0.01
0.03
0.20
0.39
0.52
0.53
0.42
0.24
0.03
-0.19
-0.39
-0.56
-0.67
-0.69
-0.62
-0.50
-0.39
-0.37
-0.45
-0.60
-0.73
-0.75
-0.61
-0.34
-0.01
0.27
0.44
0.49
0.41
0.24
0.04
-0.16
-0.30
-0.38
-0.36
-0.29
-0.20
-0.14
-0.16
-0.24
-0.34
-0.39
-0.35
-0.18
0.07
0.33
0.48
0.49
0.34
0.12
-0.08
-0.20
-0.22
-0.19
-0.17
-0.20
-0.24
-0.25
-0.20
-0.10
0.01
0.08
0.09
0.08
0.13
0.27
0.52
0.81
1.00
0.99
0.77
0.41
0.10
-0.02
0.13
0.49
0.87
1.10
1.06
0.78
0.38
0.03
-0.17
-0.22
-0.17
-0.15
-0.21
-0.34
-0.50
-0.61
-0.60
-0.49
-0.33
-0.19
-0.11
-0.09
-0.11
-0.11
-0.07
-0.01
0.01
-0.07
-0.23
-0.46
-0.65
-0.74
-0.70
-0.53
-0.25
0.08
0.43
0.72
0.90
0.92
0.76
0.50
0.24
0.08
0.07
0.16
0.22
0.13
-0.12
-0.46
-0.77
-0.93
-0.89
-0.71
-0.50
-0.35
-0.28
-0.24
-0.16
-0.02
0.18
0.36
0.49
0.56
0.59
0.58
0.53
0.41
0.18
-0.12
-0.41
-0.57
-0.48
-0.17
0.23
0.56
0.64
0.44
0.02
-0.44
-0.75
-0.81
-0.62
-0.29
0.04
0.23
0.26
0.15
-0.02
-0.18
-0.30
-0.38
-0.44
-0.47
-0.44
-0.30
-0.05
0.23
0.44
0.46
0.28
-0.00
-0.21
-0.18
0.11
0.53
0.88
0.96
0.74
0.34
-0.04
-0.23
-0.19
-0.05
0.05
-0.00
-0.18
-0.38
-0.50
-0.50
-0.41
-0.31
-0.25
-0.19
-0.09
0.08
0.28
0.42
0.40
0.19
-0.14
-0.48
-0.70
-0.70
-0.50
-0.14
0.29
0.68
0.93
1.01
0.89
0.64
0.33
0.08
-0.04
-0.02
0.12
0.29
0.43
0.47
0.42
0.28
0.09
-0.13
-0.36
-0.56
-0.68
-0.68
-0.53
-0.26
0.06
0.36
0.56
0.59
0.44
0.16
-0.16
-0.41
-0.51
-0.45
-0.30
-0.17
-0.16
-0.29
-0.52
-0.74
-0.84
-0.76
-0.50
-0.10
0.38
0.83
1.15
1.24
1.05
0.59
0.01
-0.52
-0.84
-0.85
-0.57
-0.07
0.51
1.05
1.47
1.71
1.80
1.76
1.68
1.66
1.77
2.02
2.36
2.65
2.76
2.58
2.13
1.48
0.81
0.30
0.09
0.24
0.70
1.34
2.00
2.52
2.76
2.67
2.26
1.65
0.96
0.30
-0.26
-0.71
-1.09
-1.43
-1.75
-2.04
-2.30
-2.52
-2.72
-2.91
-3.09
-3.19
-3.16
-2.96
-2.64
-2.32
-2.12
-2.13
-2.30
-2.53
-2.69
-2.69
-2.53
-2.27
-2.00
-1.75
-1.53
-1.31
-1.07
-0.78
-0.46
-0.12
0.21
0.54
0.85
1.12
1.34
1.45
1.43
1.25
0.92
0.51
0.09
-0.22
-0.37
-0.32
-0.10
0.19
0.45
0.61
0.62
0.56
0.50
0.53
0.69
0.93
1.15
1.26
1.20
0.97
0.64
0.28
-0.06
-0.33
-0.54
-0.69
-0.75
-0.71
-0.58
-0.38
-0.18
-0.06
-0.05
-0.15
-0.32
-0.47
-0.56
-0.55
-0.46
-0.35
-0.29
-0.28
-0.32
-0.34
-0.25
-0.01
0.37
0.80
1.17
1.36
1.32
1.07
0.69
0.33
0.07
-0.02
0.07
0.26
0.43
0.51
0.43
0.23
0.01
-0.16
-0.22
-0.20
-0.14
-0.09
-0.06
-0.04
-0.01
0.01
0.00
-0.08
-0.21
-0.32
-0.35
-0.22
0.03
0.32
0.54
0.59
0.47
0.25
-0.00
-0.20
-0.30
-0.34
-0.33
-0.26
-0.16
0.01
0.20
0.37
0.46
0.43
0.30
0.15
0.06
0.06
0.12
0.15
0.06
-0.19
-0.53
-0.88
-1.11
-1.16
-1.06
-0.90
-0.79
-0.77
-0.79
-0.75
-0.56
-0.17
0.32
0.79
1.06
1.06
0.81
0.46
0.18
0.10
0.25
0.54
0.81
0.94
0.87
0.64
0.38
0.18
0.10
0.15
0.29
0.47
0.65
0.75
0.69
0.42
-0.07
-0.65
-1.14
-1.38
-1.30
-1.00
-0.63
-0.36
-0.24
-0.23
-0.24
-0.18
-0.06
0.09
0.21
0.26
0.24
0.18
0.12
0.08
0.08
0.14
0.22
0.28
0.23
0.05
-0.25
-0.56
-0.76
-0.76
-0.56
-0.26
0.02
0.19
0.23
0.20
0.18
0.22
0.31
0.37
0.32
0.13
-0.16
-0.43
-0.58
-0.55
-0.37
-0.15
-0.01
0.01
-0.08
-0.19
-0.20
-0.08
0.14
0.36
0.48
0.45
0.31
0.17
0.13
0.21
0.36
0.47
0.46
0.34
0.18
0.09
0.13
0.29
0.46
0.52
0.37
0.04
-0.36
-0.67
-0.79
-0.70
-0.48
-0.21
0.02
0.21
0.38
0.54
0.67
0.71
0.60
0.33
-0.03
-0.37
-0.59
-0.65
-0.55
-0.36
-0.17
-0.03
0.04
0.07
0.10
0.15
0.19
0.17
0.06
-0.12
-0.32
-0.46
-0.48
-0.38
-0.23
-0.06
0.08
0.18
0.26
0.34
0.42
0.51
0.57
0.60
0.56
0.49
0.41
0.39
0.42
0.48
0.48
0.36
0.13
-0.12
-0.29
-0.29
-0.15
0.01
0.07
-0.02
-0.22
-0.41
-0.49
-0.46
-0.37
-0.31
-0.32
-0.39
-0.44
-0.43
-0.32
-0.15
0.00
0.11
0.14
0.11
0.02
-0.11
-0.26
-0.41
-0.52
-0.54
-0.43
-0.16
0.19
0.55
0.79
0.84
0.69
0.42
0.14
-0.05
-0.09
-0.03
0.08
0.15
0.16
0.13
0.12
0.15
0.20
0.23
0.18
0.04
-0.13
-0.25
-0.24
-0.10
0.10
0.21
0.12
-0.16
-0.52
-0.78
-0.81
-0.59
-0.21
0.16
0.38
0.42
0.33
0.21
0.12
0.05
-0.03
-0.18
-0.37
-0.54
-0.59
-0.47
-0.23
0.03
0.16
0.12
-0.07
-0.30
-0.45
-0.45
-0.31
-0.14
-0.02
0.02
0.00
0.01
0.07
0.17
0.23
0.20
0.08
-0.07
-0.17
-0.18
-0.14
-0.12
-0.19
-0.33
-0.46
-0.48
-0.33
-0.03
0.32
0.61
0.78
0.80
0.68
0.49
0.28
0.10
-0.04
-0.14
-0.19
-0.19
-0.11
0.07
0.33
0.62
0.84
0.95
0.97
0.99
1.03
1.09
1.08
0.87
0.46
-0.08
-0.54
-0.78
-0.73
-0.48
-0.18
0.03
0.11
0.07
-0.04
-0.18
-0.34
-0.51
-0.68
-0.82
-0.90
-0.90
-0.82
-0.67
-0.45
-0.20
0.03
0.19
0.23
0.16
0.03
-0.11
-0.24
-0.35
-0.45
-0.50
-0.45
-0.23
0.15
0.63
1.07
1.33
1.34
1.13
0.79
0.44
0.16
-0.02
-0.13
-0.18
-0.16
-0.09
0.01
0.12
0.17
0.13
-0.01
-0.23
-0.48
-0.71
-0.84
-0.82
-0.62
-0.28
0.11
0.42
0.55
0.46
0.21
-0.08
-0.28
-0.36
-0.34
-0.29
-0.26
-0.25
-0.27
-0.28
-0.28
-0.27
-0.26
-0.21
-0.11
0.05
0.24
0.42
0.53
0.58
0.56
0.50
0.42
0.31
0.19
0.10
0.07
0.12
0.21
0.28
0.25
0.08
-0.17
-0.40
-0.54
-0.52
-0.38
-0.17
0.04
0.22
0.35
0.41
0.36
0.19
-0.08
-0.36
-0.52
-0.46
-0.16
0.26
0.62
0.78
0.69
0.43
0.13
-0.06
-0.09
0.04
0.25
0.43
0.51
0.42
0.14
-0.26
-0.68
-0.96
-1.00
-0.83
-0.54
-0.30
-0.18
-0.20
-0.28
-0.36
-0.40
-0.46
-0.58
-0.73
-0.83
-0.79
-0.55
-0.15
0.29
0.65
0.86
0.92
0.89
0.83
0.78
0.74
0.68
0.59
0.46
0.32
0.20
0.16
0.21
0.32
0.44
0.48
0.39
0.18
-0.06
-0.24
-0.32
-0.31
-0.28
-0.28
-0.29
-0.27
-0.18
-0.03
0.12
0.21
0.19
0.11
0.03
-0.00
0.02
0.04
-0.00
-0.14
-0.33
-0.52
-0.60
-0.55
-0.36
-0.08
0.23
0.49
0.66
0.75
0.81
0.86
0.91
0.91
0.79
0.50
0.06
-0.45
-0.90
-1.17
-1.20
-1.01
-0.70
-0.36
-0.09
0.07
0.12
0.06
-0.08
-0.27
-0.49
-0.65
-0.67
-0.48
-0.08
0.42
0.87
1.10
1.03
0.70
0.25
-0.15
-0.40
-0.46
-0.35
-0.15
0.06
0.22
0.30
0.27
0.14
-0.04
-0.23
-0.39
-0.52
-0.62
-0.71
-0.77
-0.78
-0.73
-0.63
-0.53
-0.47
-0.46
-0.44
-0.34
-0.14
0.14
0.41
0.60
0.65
0.62
0.57
0.55
0.58
0.63
0.61
0.51
0.35
0.17
0.03
-0.06
-0.09
-0.08
-0.00
0.15
0.38
0.61
0.75
0.70
0.45
0.09
-0.25
-0.43
-0.41
-0.24
-0.05
0.10
0.20
0.30
0.42
0.50
0.48
0.30
0.01
-0.24
-0.31
-0.18
0.07
0.29
0.32
0.16
-0.09
-0.29
-0.35
-0.32
-0.30
-0.39
-0.59
-0.83
-0.99
-0.99
-0.85
-0.65
-0.44
-0.26
-0.09
0.08
0.25
0.33
0.28
0.10
-0.17
-0.40
-0.53
-0.51
-0.42
-0.32
-0.25
-0.23
-0.19
-0.09
0.09
0.31
0.51
0.64
0.65
0.57
0.47
0.40
0.40
0.47
0.54
0.56
0.47
0.28
0.04
-0.17
-0.29
-0.29
-0.18
-0.01
0.20
0.40
0.57
0.71
0.79
0.77
0.62
0.36
0.01
-0.33
-0.55
-0.60
-0.46
-0.21
0.03
0.20
0.24
0.19
0.08
-0.02
-0.09
-0.09
-0.01
0.18
0.42
0.67
0.82
0.82
0.67
0.44
0.24
0.13
0.13
0.15
0.13
0.04
-0.09
-0.18
-0.17
-0.06
0.07
0.08
-0.08
-0.40
-0.76
-1.03
-1.13
-1.04
-0.82
-0.55
-0.26
-0.01
0.21
0.35
0.39
0.34
0.25
0.16
0.10
0.04
-0.09
-0.34
-0.69
-1.09
-1.42
-1.63
-1.71
-1.66
-1.51
-1.24
-0.89
-0.48
-0.09
0.20
0.36
0.40
0.40
0.43
0.53
0.67
0.80
0.86
0.82
0.68
0.51
0.36
0.31
0.40
0.60
0.84
1.05
1.12
1.05
0.84
0.55
0.23
-0.10
-0.39
-0.62
-0.74
-0.74
-0.59
-0.32
0.00
0.31
0.52
0.61
0.56
0.39
0.13
-0.18
-0.46
-0.66
-0.73
-0.66
-0.50
-0.33
-0.22
-0.23
-0.33
-0.47
-0.57
-0.59
-0.52
-0.37
-0.18
0.05
0.31
0.58
0.82
1.01
1.10
1.08
0.94
0.70
0.37
-0.02
-0.39
-0.67
-0.78
-0.71
-0.52
-0.32
-0.21
-0.22
-0.30
-0.37
-0.33
-0.19
0.03
0.24
0.41
0.52
0.59
0.63
0.66
0.68
0.70
0.73
0.78
0.85
0.89
0.88
0.79
0.64
0.48
0.38
0.36
0.41
0.45
0.40
0.24
-0.01
-0.26
-0.42
-0.47
-0.46
-0.46
-0.55
-0.74
-0.95
-1.07
-1.00
-0.72
-0.31
0.13
0.44
0.55
0.40
0.04
-0.40
-0.79
-0.97
-0.90
-0.58
-0.11
0.37
0.77
1.02
1.13
1.15
1.11
1.05
0.98
0.93
0.87
0.81
0.71
0.57
0.38
0.17
-0.03
-0.22
-0.41
-0.65
-0.96
-1.33
-1.70
-2.05
-2.35
-2.61
-2.86
-3.12
-3.39
-3.63
-3.80
-3.89
-3.91
-3.90
-3.90
-3.93
-3.97
-3.91
-3.55
-2.67
-1.17
0.92
3.32
5.66
7.55
8.75
9.19
8.92
8.09
6.87
5.45
4.05
2.90
2.14
1.80
1.73
1.69
1.43
0.86
0.06
-0.77
-1.38
-1.59
-1.38
-0.92
-0.46
-0.30
-0.61
-1.37
-2.34
-3.18
-3.59
-3.46
-2.92
-2.28
-1.85
-1.84
-2.27
-3.01
-3.85
-4.52
-4.71
-4.12
-2.53
-0.02
3.01
5.85
7.75
8.20
7.16
5.03
2.46
0.04
-1.89
-3.23
-4.08
-4.47
-4.44
-3.95
-3.07
-1.96
-0.89
-0.09
0.29
0.28
0.06
-0.09
0.03
0.50
1.16
1.73
1.94
1.65
0.98
0.21
-0.30
-0.31
0.21
1.08
2.03
2.80
3.24
3.31
3.08
2.65
2.13
1.59
1.08
0.58
0.07
-0.49
-1.11
-1.72
-2.22
-2.49
-2.54
-2.40
-2.21
-2.10
-2.15
-2.34
-2.57
-2.74
-2.72
-2.48
-2.07
-1.59
-1.19
-0.99
-1.04
-1.31
-1.71
-2.11
-2.43
-2.65
-2.80
-2.94
-3.10
-3.32
-3.60
-3.98
-4.50
-5.18
-5.98
-6.80
-7.57
-8.24
-8.93
-9.79
-10.98
-12.55
-14.39
-16.27
-17.98
-19.44
-20.82
-22.45
-24.68
-27.65
-31.26
-35.12
-38.80
-41.99
-44.70
-47.19
-49.92
-53.29
-57.43
-62.22
-67.27
-72.14
-76.50
-80.27
-83.59
-86.78
-90.27
-94.44
-99.49
-105.25
-110.88
-114.67
-113.99
-105.89
-88.07
-59.97
-23.52
17.09
56.44
89.57
113.42
127.41
133.01
132.64
128.65
122.72
116.03
109.69
105.06
103.51
105.79
111.49
119.00
126.07
130.55
131.16
127.67
120.57
110.54
98.05
83.44
67.30
50.72
35.42
23.27
15.77
13.54
16.22
22.73
31.73
41.99
52.54
62.62
71.45
77.97
80.98
79.49
73.24
63.18
51.29
40.10
31.86
27.77
27.69
30.33
33.81
36.29
36.50
34.05
29.54
24.21
19.21
14.77
9.77
2.13
-10.03
-27.03
-46.89
-65.96
-80.55
-88.63
-90.68
-89.08
-86.60
-84.84
-83.75
-82.16
-79.00
-74.14
-68.55
-63.59
-60.19
-58.39
-57.35
-55.89
-53.14
-48.91
-43.69
-38.35
-33.65
-29.96
-27.06
-24.40
-21.40
-17.78
-13.74
-9.82
-6.64
-4.56
-3.55
-3.14
-2.70
-1.73
-0.12
1.88
3.74
5.00
5.48
5.34
4.99
4.85
5.11
5.68
6.27
6.57
6.53
6.30
6.24
6.62
7.49
8.59
9.43
9.57
8.73
6.98
4.65
2.18
-0.09
-2.02
-3.66
-5.15
-6.56
-7.79
-8.57
-8.69
-8.05
-6.81
-5.29
-3.85
-2.78
-2.22
-2.21
-2.75
-3.81
-5.26
-6.81
-8.02
-8.48
-7.96
-6.65
-5.02
-3.68
-3.06
-3.24
-3.90
-4.55
-4.75
-4.32
-3.36
-2.22
-1.26
-0.74
-0.72
-1.08
-1.60
-2.07
-2.35
-2.39
-2.17
-1.70
-0.99
-0.09
0.90
1.86
2.63
3.16
3.45
3.57
3.57
3.49
3.37
3.23
3.11
3.04
3.01
2.97
2.83
2.56
2.23
1.97
1.89
2.04
2.34
2.65
2.81
2.76
2.54
2.25
2.03
1.95
2.03
2.28
2.63
3.03
3.43
3.78
4.03
4.17
4.19
4.08
3.83
3.47
3.01
2.53
2.10
1.80
1.62
1.51
1.40
1.21
0.94
0.63
0.35
0.10
-0.15
-0.47
-0.94
-1.57
-2.37
-3.32
-4.37
-5.45
-6.43
-7.13
-7.43
-7.26
-6.70
-5.89
-5.02
-4.20
-3.46
-2.79
-2.14
-1.51
-0.95
-0.46
-0.06
0.31
0.68
1.03
1.35
1.57
1.68
1.69
1.65
1.61
1.60
1.62
1.67
1.75
1.85
1.96
2.05
2.10
2.10
2.05
1.98
1.89
1.81
1.70
1.55
1.34
1.05
0.70
0.31
-0.07
-0.39
-0.63
-0.80
-0.93
-1.07
-1.24
-1.42
-1.61
-1.77
-1.87
-1.90
-1.83
-1.68
-1.45
-1.22
-1.05
-1.02
-1.14
-1.41
-1.69
-1.88
-1.83
-1.48
-0.88
-0.15
0.52
0.97
1.15
1.08
0.88
0.66
0.47
0.31
0.14
-0.01
-0.12
-0.13
0.02
0.29
0.59
0.81
0.86
0.72
0.40
-0.06
-0.59
-1.08
-1.43
-1.57
-1.49
-1.27
-1.05
-0.96
-1.06
-1.33
-1.64
-1.84
-1.84
-1.60
-1.18
-0.67
-0.14
0.35
0.75
1.06
1.25
1.33
1.35
1.33
1.31
1.30
1.28
1.24
1.14
1.01
0.89
0.82
0.85
0.94
1.05
1.10
1.07
0.98
0.89
0.83
0.76
0.60
0.26
-0.28
-0.95
-1.59
-2.04
-2.24
-2.22
-2.06
-1.84
-1.61
-1.35
-1.05
-0.73
-0.46
-0.29
-0.26
-0.34
-0.41
-0.36
-0.08
0.40
0.98
1.47
1.72
1.65
1.37
1.08
1.00
1.25
1.76
2.36
2.84
3.09
3.10
2.95
2.72
2.41
1.97
1.33
0.47
-0.56
-1.73
-2.98
-4.27
-5.57
-6.80
-7.84
-8.64
-9.16
-9.48
-9.64
-9.66
-9.43
-8.82
-7.70
-6.03
-3.89
-1.46
1.03
3.39
5.45
7.10
8.31
9.08
9.54
9.80
9.98
10.10
10.06
9.68
8.78
7.36
5.59
3.86
2.53
1.82
1.70
1.84
1.86
1.45
0.55
-0.64
-1.80
-2.66
-3.13
-3.33
-3.48
-3.77
-4.24
-4.78
-5.14
-5.10
-4.55
-3.57
-2.39
-1.31
-0.53
-0.10
0.11
0.33
0.71
1.30
1.96
2.52
2.82
2.81
2.56
2.19
1.80
1.41
1.00
0.52
-0.05
-0.66
-1.22
-1.63
-1.82
-1.77
-1.54
-1.25
-1.01
-0.86
-0.82
-0.81
-0.77
-0.70
-0.64
-0.66
-0.79
-0.98
-1.08
-0.99
-0.65
-0.17
0.28
0.55
0.57
0.41
0.17
-0.04
-0.18
-0.26
-0.27
-0.22
-0.06
0.21
0.52
0.80
0.94
0.92
0.76
0.54
0.35
0.23
0.19
0.23
0.34
0.51
0.69
0.84
0.89
0.82
0.64
0.38
0.10
-0.16
-0.36
-0.48
-0.53
-0.52
-0.50
-0.51
-0.58
-0.70
-0.81
-0.85
-0.76
-0.59
-0.39
-0.25
-0.17
-0.12
-0.00
0.23
0.55
0.84
0.99
0.92
0.66
0.34
0.10
0.01
0.06
0.17
0.27
0.33
0.36
0.38
0.40
0.39
0.29
0.10
-0.16
-0.41
-0.61
-0.72
-0.74
-0.69
-0.59
-0.44
-0.27
-0.08
0.11
0.26
0.37
0.40
0.38
0.30
0.18
-0.00
-0.27
-0.59
-0.94
-1.25
-1.42
-1.41
-1.23
-0.98
-0.76
-0.67
-0.73
-0.91
-1.11
-1.24
-1.26
-1.19
-1.06
-0.92
-0.81
-0.76
-0.79
-0.90
-1.07
-1.29
-1.53
-1.81
-2.14
-2.54
-3.00
-3.45
-3.78
-3.91
-3.80
-3.53
-3.24
-3.10
-3.23
-3.66
-4.29
-4.98
-5.56
-5.85
-5.77
-5.32
-4.60
-3.76
-2.97
-2.34
-1.83
-1.32
-0.64
0.32
1.54
2.92
4.29
5.47
6.34
6.83
6.89
6.55
5.94
5.27
4.76
4.59
4.76
5.17
5.63
6.01
6.24
6.38
6.48
6.63
6.81
7.00
7.16
7.29
7.44
7.64
7.89
8.11
8.19
8.10
7.95
7.92
8.26
9.08
10.28
11.57
12.58
12.98
12.55
11.15
8.71
5.24
0.85
-4.10
-9.05
-13.31
-16.31
-17.77
-17.77
-16.65
-14.87
-12.80
-10.71
-8.74
-6.97
-5.47
-4.28
-3.41
-2.79
-2.32
-1.88
-1.39
-0.81
-0.18
0.42
0.93
1.34
1.64
1.89
2.10
2.21
2.15
1.82
1.20
0.35
-0.56
-1.31
-1.72
-1.76
-1.52
-1.21
-1.05
-1.15
-1.49
-1.89
-2.12
-2.08
-1.79
-1.41
-1.13
-1.08
-1.22
-1.41
-1.47
-1.32
-1.02
-0.69
-0.56
-0.74
-1.26
-2.02
-2.84
-3.52
-3.92
-4.01
-3.83
-3.48
-3.08
-2.68
-2.31
-1.93
-1.51
-1.05
-0.60
-0.19
0.14
0.42
0.68
0.92
1.11
1.15
0.97
0.57
0.08
-0.32
-0.44
-0.22
0.27
0.82
1.24
1.39
1.28
1.03
0.76
0.58
0.52
0.56
0.67
0.82
1.00
1.22
1.47
1.75
1.99
2.15
2.17
2.02
1.75
1.44
1.20
1.14
1.26
1.51
1.82
2.08
2.25
2.34
2.38
2.40
2.44
2.51
2.63
2.80
3.01
3.23
3.41
3.47
3.39
3.13
2.71
2.18
1.57
0.94
0.34
-0.23
-0.74
-1.18
-1.54
-1.82
-2.03
-2.19
-2.33
-2.46
-2.58
-2.68
-2.73
-2.70
-2.58
-2.37
-2.11
-1.81
-1.54
-1.34
-1.21
-1.14
-1.07
-0.91
-0.63
-0.22
0.25
0.69
1.00
1.12
1.02
0.69
0.19
-0.38
-0.91
-1.26
-1.37
-1.24
-0.95
-0.62
-0.38
-0.28
-0.34
-0.50
-0.72
-0.94
-1.14
-1.29
-1.39
-1.42
-1.38
-1.27
-1.06
-0.76
-0.38
0.02
0.35
0.54
0.59
0.53
0.41
0.27
0.09
-0.17
-0.53
-0.96
-1.38
-1.67
-1.77
-1.67
-1.44
-1.19
-0.98
-0.80
-0.58
-0.30
0.04
0.34
0.52
0.55
0.48
0.42
0.45
0.57
0.69
0.70
0.53
0.25
-0.04
-0.20
-0.19
-0.08
0.02
-0.00
-0.18
-0.47
-0.78
-1.02
-1.13
-1.07
-0.83
-0.43
0.09
0.64
1.11
1.46
1.67
1.79
1.90
2.05
2.23
2.39
2.47
2.44
2.37
2.32
2.37
2.49
2.55
2.40
1.99
1.36
0.70
0.20
-0.06
-0.12
-0.15
-0.34
-0.75
-1.28
-1.75
-1.99
-1.96
-1.77
-1.60
-1.61
-1.84
-2.20
-2.52
-2.66
-2.56
-2.23
-1.75
-1.25
-0.80
-0.46
-0.24
-0.13
-0.10
-0.09
-0.03
0.12
0.34
0.59
0.77
0.81
0.70
0.45
0.14
-0.17
-0.42
-0.54
-0.51
-0.33
-0.01
0.39
0.77
1.05
1.13
0.97
0.60
0.11
-0.36
-0.67
-0.70
-0.45
0.02
0.56
1.02
1.34
1.53
1.67
1.83
2.02
2.16
2.19
2.04
1.68
1.14
0.46
-0.29
-1.05
-1.71
-2.18
-2.40
-2.35
-2.07
-1.62
-1.09
-0.55
-0.09
0.23
0.35
0.28
0.07
-0.17
-0.35
-0.41
-0.38
-0.33
-0.33
-0.40
-0.50
-0.56
-0.55
-0.49
-0.42
-0.39
-0.41
-0.44
-0.46
-0.44
-0.42
-0.48
-0.65
-0.92
-1.19
-1.30
-1.16
-0.74
-0.14
0.49
1.00
1.33
1.45
1.42
1.32
1.21
1.13
1.05
0.97
0.87
0.77
0.72
0.77
0.90
1.07
1.15
1.01
0.62
0.02
-0.62
-1.11
-1.30
-1.15
-0.75
-0.24
0.21
0.53
0.68
0.70
0.63
0.50
0.34
0.15
-0.03
-0.18
-0.27
-0.27
-0.22
-0.17
-0.17
-0.23
-0.32
-0.35
-0.26
-0.05
0.24
0.51
0.67
0.69
0.56
0.33
0.07
-0.18
-0.34
-0.38
-0.33
-0.23
-0.19
-0.26
-0.47
-0.72
-0.92
-0.98
-0.90
-0.78
-0.70
-0.74
-0.86
-0.97
-1.00
-0.95
-0.88
-0.86
-0.90
-0.96
-0.95
-0.79
-0.52
-0.20
0.06
0.24
0.35
0.44
0.54
0.62
0.63
0.57
0.46
0.38
0.38
0.46
0.58
0.65
0.59
0.41
0.12
-0.20
-0.50
-0.74
-0.90
-0.99
-0.99
-0.87
-0.62
-0.21
0.31
0.84
1.25
1.44
1.40
1.18
0.88
0.60
0.40
0.31
0.35
0.52
0.84
1.25
1.67
1.92
1.90
1.54
0.94
0.23
-0.41
-0.91
-1.22
-1.40
-1.50
-1.53
-1.48
-1.32
-1.05
-0.68
-0.27
0.11
0.39
0.54
0.57
0.51
0.43
0.39
0.40
0.46
0.53
0.55
0.49
0.33
0.11
-0.12
-0.29
-0.36
-0.36
-0.33
-0.36
-0.50
-0.73
-0.97
-1.13
-1.12
-0.96
-0.72
-0.47
-0.28
-0.14
0.01
0.20
0.43
0.61
0.68
0.57
0.33
0.01
-0.28
-0.51
-0.67
-0.77
-0.81
-0.76
-0.56
-0.21
0.24
0.67
0.98
1.13
1.20
1.26
1.38
1.52
1.58
1.46
1.15
0.73
0.29
-0.08
-0.34
-0.53
-0.68
-0.76
-0.76
-0.62
-0.35
-0.01
0.32
0.56
0.63
0.53
0.29
-0.05
-0.43
-0.79
-1.10
-1.33
-1.48
-1.54
-1.53
-1.44
-1.33
-1.24
-1.20
-1.21
-1.21
-1.15
-1.01
-0.82
-0.65
-0.58
-0.62
-0.74
-0.85
-0.81
-0.52
0.10
1.04
2.22
3.41
4.37
4.88
4.84
4.32
3.53
2.71
2.06
1.61
1.30
0.96
0.50
-0.07
-0.64
-1.03
-1.11
-0.84
-0.31
0.27
0.70
0.79
0.51
-0.08
-0.82
-1.52
-2.01
-2.21
-2.11
-1.79
-1.36
-0.91
-0.51
-0.19
0.03
0.14
0.15
0.10
0.03
-0.04
-0.09
-0.17
-0.32
-0.52
-0.69
-0.71
-0.50
-0.10
0.38
0.74
0.83
0.61
0.10
-0.57
-1.30
-1.94
-2.32
-2.25
-1.62
-0.50
0.86
2.07
2.79
2.86
2.39
1.67
1.04
0.70
0.64
0.70
0.69
0.47
0.08
-0.35
-0.62
-0.62
-0.37
0.01
0.33
0.46
0.41
0.26
0.14
0.14
0.19
0.19
0.07
-0.19
-0.47
-0.63
-0.57
-0.29
0.11
0.45
0.62
0.57
0.34
0.05
-0.18
-0.30
-0.29
-0.23
-0.19
-0.20
-0.26
-0.33
-0.38
-0.38
-0.36
-0.32
-0.30
-0.26
-0.18
-0.05
0.07
0.12
0.05
-0.16
-0.44
-0.68
-0.81
-0.80
-0.70
-0.56
-0.45
-0.41
-0.47
-0.62
-0.89
-1.24
-1.62
-1.94
-2.15
-2.25
-2.25
-2.22
-2.15
-2.00
-1.71
-1.22
-0.60
0.04
0.56
0.87
0.98
0.99
1.00
1.08
1.22
1.34
1.41
1.40
1.37
1.36
1.38
1.39
1.32
1.17
0.95
0.77
0.70
0.75
0.86
0.93
0.88
0.74
0.56
0.43
0.35
0.32
0.27
0.18
0.08
0.02
0.05
0.17
0.28
0.30
0.17
-0.06
-0.29
-0.40
-0.35
-0.17
0.04
0.17
0.18
0.08
-0.06
-0.18
-0.25
-0.24
-0.21
-0.17
-0.15
-0.18
-0.24
-0.33
-0.41
-0.43
-0.37
-0.25
-0.12
-0.05
-0.09
-0.24
-0.46
-0.65
-0.77
-0.79
-0.73
-0.65
-0.57
-0.49
-0.36
-0.16
0.12
0.43
0.71
0.85
0.82
0.62
0.35
0.14
0.10
0.28
0.59
0.89
1.00
0.83
0.38
-0.22
-0.81
-1.27
-1.59
-1.80
-1.94
-2.01
-1.93
-1.65
-1.17
-0.63
-0.21
-0.08
-0.27
-0.71
-1.20
-1.57
-1.73
-1.72
-1.65
-1.61
-1.66
-1.75
-1.84
-1.84
-1.74
-1.58
-1.42
-1.33
-1.34
-1.41
-1.45
-1.38
-1.13
-0.70
-0.21
0.21
0.45
0.52
0.55
0.69
1.06
1.62
2.23
2.72
2.98
3.03
3.00
2.99
3.04
3.08
2.99
2.74
2.38
2.06
1.92
1.98
2.16
2.33
2.37
2.28
2.13
2.02
2.01
2.06
2.08
2.01
1.83
1.61
1.40
1.23
1.09
0.92
0.69
0.40
0.11
-0.11
-0.24
-0.31
-0.41
-0.61
-0.91
-1.24
-1.51
-1.61
-1.52
-1.31
-1.07
-0.94
-0.99
-1.23
-1.62
-2.04
-2.42
-2.68
-2.79
-2.77
-2.63
-2.41
-2.16
-1.93
-1.74
-1.64
-1.63
-1.68
-1.73
-1.70
-1.48
-1.05
-0.41
0.35
1.09
1.72
2.21
2.57
2.87
3.15
3.39
3.55
3.58
3.48
3.31
3.15
3.04
2.99
2.91
2.72
2.38
1.95
1.56
1.34
1.39
1.70
2.15
2.59
2.88
2.96
2.76
2.27
1.46
0.35
-0.95
-2.24
-3.27
-3.82
-3.84
-3.50
-3.11
-2.98
-3.23
-3.74
-4.25
-4.50
-4.39
-4.02
-3.60
-3.31
-3.17
-3.06
-2.84
-2.42
-1.88
-1.34
-0.91
-0.61
-0.36
-0.06
0.31
0.69
0.99
1.16
1.26
1.33
1.47
1.69
1.97
2.27
2.53
2.71
2.82
2.91
3.09
3.44
3.98
4.62
5.17
5.39
5.13
4.35
3.18
1.80
0.44
-0.78
-1.77
-2.49
-2.92
-3.07
-3.03
-2.91
-2.80
-2.75
-2.67
-2.49
-2.16
-1.73
-1.34
-1.14
-1.20
-1.50
-1.91
-2.32
-2.61
-2.70
-2.50
-1.89
-0.81
0.69
2.35
3.78
4.57
4.51
3.65
2.30
0.92
-0.13
-0.69
-0.77
-0.53
-0.13
0.29
0.67
0.93
1.01
0.87
0.51
0.01
-0.50
-0.90
-1.10
-1.12
-1.02
-0.89
-0.83
-0.86
-0.96
-1.09
-1.17
-1.13
-0.93
-0.56
-0.08
0.37
0.68
0.76
0.59
0.24
-0.17
-0.54
-0.79
-0.86
-0.73
-0.38
0.17
0.83
1.43
1.81
1.83
1.51
0.98
0.41
-0.03
-0.27
-0.27
-0.06
0.36
0.94
1.62
2.28
2.81
3.11
3.17
3.07
2.92
2.80
2.72
2.62
2.40
2.00
1.38
0.59
-0.29
-1.18
-2.00
-2.66
-3.09
-3.22
-3.02
-2.52
-1.81
-1.03
-0.34
0.12
0.26
0.09
-0.34
-0.93
-1.55
-2.11
-2.52
-2.73
-2.68
-2.38
-1.90
-1.38
-0.97
-0.80
-0.88
-1.11
-1.32
-1.35
-1.14
-0.74
-0.32
-0.06
-0.09
-0.42
-0.94
-1.53
-2.02
-2.30
-2.32
-2.01
-1.42
-0.66
0.05
0.49
0.55
0.33
0.09
0.10
0.49
1.14
1.75
2.04
1.90
1.45
0.97
0.72
0.78
1.04
1.28
1.36
1.23
1.02
0.83
0.74
0.74
0.76
0.73
0.61
0.45
0.30
0.23
0.26
0.31
0.29
0.09
-0.32
-0.86
-1.35
-1.61
-1.51
-1.08
-0.44
0.22
0.70
0.94
0.95
0.82
0.64
0.46
0.28
0.08
-0.17
-0.43
-0.65
-0.77
-0.76
-0.62
-0.40
-0.14
0.09
0.24
0.29
0.25
0.19
0.17
0.28
0.53
0.83
1.09
1.17
1.02
0.62
0.03
-0.63
-1.24
-1.70
-1.91
-1.84
-1.54
-1.12
-0.70
-0.39
-0.19
-0.03
0.20
0.56
1.04
1.56
2.04
2.38
2.53
2.44
2.10
1.55
0.87
0.20
-0.35
-0.73
-0.99
-1.23
-1.54
-1.93
-2.33
-2.62
-2.69
-2.50
-2.11
-1.63
-1.18
-0.84
-0.64
-0.60
-0.65
-0.77
-0.90
-0.97
-0.97
-0.85
-0.63
-0.36
-0.11
0.04
0.07
0.02
-0.04
-0.01
0.20
0.56
0.96
1.25
1.33
1.19
0.94
0.72
0.65
0.74
0.86
0.88
0.72
0.41
0.12
0.03
0.20
0.53
0.79
0.79
0.46
-0.06
-0.50
-0.62
-0.34
0.18
0.69
0.93
0.81
0.41
-0.04
-0.33
-0.36
-0.12
0.26
0.61
0.83
0.83
0.63
0.31
-0.02
-0.27
-0.41
-0.47
-0.52
-0.59
-0.69
-0.78
-0.82
-0.80
-0.76
-0.80
-0.94
-1.18
-1.46
-1.75
-2.01
-2.25
-2.43
-2.49
-2.30
-1.79
-0.99
-0.02
0.87
1.49
1.73
1.61
1.29
0.99
0.92
1.21
1.89
2.79
3.66
4.25
4.35
3.95
3.15
2.14
1.09
0.13
-0.71
-1.39
-1.90
-2.21
-2.30
-2.18
-1.92
-1.56
-1.20
-0.89
-0.68
-0.57
-0.52
-0.44
-0.26
0.01
0.27
0.37
0.17
-0.31
-0.98
-1.65
-2.17
-2.47
-2.50
-2.19
-1.49
-0.37
1.03
2.38
3.24
3.28
2.48
1.13
-0.25
-1.18
-1.47
-1.26
-0.83
-0.45
-0.25
-0.17
-0.17
-0.23
-0.44
-0.83
-1.38
-1.96
-2.42
-2.66
-2.63
-2.37
-1.92
-1.36
-0.83
-0.46
-0.36
-0.53
-0.83
-1.06
-1.06
-0.82
-0.48
-0.26
-0.23
-0.35
-0.42
-0.27
0.10
0.53
0.80
0.75
0.35
-0.23
-0.73
-0.94
-0.77
-0.27
0.42
1.14
1.77
2.27
2.63
2.89
3.05
3.18
3.29
3.43
3.60
3.80
4.01
4.23
4.41
4.56
4.67
4.72
4.72
4.68
4.64
4.66
4.78
4.95
5.08
4.99
4.55
3.72
2.56
1.19
-0.26
-1.65
-2.88
-3.86
-4.48
-4.71
-4.58
-4.21
-3.81
-3.53
-3.46
-3.57
-3.74
-3.87
-3.92
-3.88
-3.81
-3.71
-3.56
-3.34
-3.04
-2.72
-2.47
-2.34
-2.35
-2.43
-2.49
-2.43
-2.21
-1.82
-1.29
-0.64
0.06
0.75
1.31
1.65
1.73
1.57
1.27
0.98
0.81
0.81
0.99
1.31
1.70
2.11
2.48
2.71
2.74
2.54
2.17
1.75
1.40
1.21
1.19
1.27
1.33
1.29
1.09
0.78
0.41
0.07
-0.22
-0.43
-0.60
-0.73
-0.82
-0.88
-0.90
-0.89
-0.91
-0.99
-1.15
-1.35
-1.50
-1.55
-1.50
-1.40
-1.35
-1.40
-1.53
-1.66
-1.69
-1.59
-1.38
-1.13
-0.92
-0.74
-0.56
-0.33
-0.00
0.40
0.85
1.32
1.77
2.15
2.39
2.44
2.31
2.04
1.76
1.55
1.40
1.27
1.08
0.82
0.56
0.44
0.54
0.85
1.27
1.63
1.80
1.76
1.55
1.27
0.98
0.74
0.56
0.40
0.23
0.03
-0.22
-0.46
-0.66
-0.79
-0.86
-0.91
-0.98
-1.07
-1.15
-1.16
-1.09
-0.97
-0.90
-0.97
-1.15
-1.36
-1.47
-1.39
-1.11
-0.71
-0.28
0.07
0.34
0.54
0.70
0.82
0.89
0.85
0.69
0.44
0.14
-0.10
-0.23
-0.21
-0.09
0.07
0.18
0.18
0.11
0.01
-0.04
-0.01
0.07
0.13
0.11
-0.01
-0.17
-0.30
-0.32
-0.20
0.02
0.26
0.45
0.52
0.47
0.36
0.28
0.30
0.46
0.75
1.13
1.50
1.79
1.90
1.84
1.63
1.35
1.05
0.73
0.31
-0.23
-0.88
-1.52
-2.01
-2.22
-2.16
-1.97
-1.83
-1.86
-2.08
-2.39
-2.62
-2.57
-2.13
-1.23
0.05
1.49
2.75
3.46
3.39
2.54
1.15
-0.36
-1.58
-2.26
-2.37
-2.04
-1.50
-0.98
-0.62
-0.50
-0.57
-0.72
-0.83
-0.80
-0.66
-0.49
-0.40
-0.39
-0.41
-0.35
-0.15
0.11
0.25
0.10
-0.43
-1.24
-2.09
-2.70
-2.84
-2.40
-1.43
-0.17
1.05
1.90
2.18
1.95
1.41
0.88
0.57
0.52
0.62
0.71
0.71
0.63
0.57
0.62
0.80
1.02
1.19
1.26
1.22
1.14
1.05
0.93
0.73
0.43
0.02
-0.40
-0.72
-0.84
-0.73
-0.48
-0.25
-0.16
-0.30
-0.60
-0.95
-1.16
-1.16
-0.94
-0.57
-0.18
0.11
0.25
0.21
0.00
-0.35
-0.80
-1.25
-1.64
-1.91
-2.04
-2.07
-2.07
-2.13
-2.31
-2.63
-3.04
-3.47
-3.84
-4.12
-4.32
-4.50
-4.72
-5.03
-5.41
-5.82
-6.23
-6.64
-7.05
-7.39
-7.54
-7.30
-6.52
-5.17
-3.37
-1.37
0.54
2.17
3.43
4.37
5.04
5.53
5.87
6.13
6.35
6.62
6.98
7.41
7.81
8.05
7.99
7.58
6.87
5.96
5.02
4.17
3.48
2.95
2.51
2.10
1.69
1.31
1.04
0.94
0.97
1.04
0.99
0.72
0.26
-0.26
-0.65
-0.77
-0.67
-0.48
-0.35
-0.34
-0.41
-0.43
-0.34
-0.17
-0.01
0.08
0.08
0.07
0.13
0.27
0.43
0.51
0.44
0.25
-0.00
-0.22
-0.33
-0.32
-0.25
-0.13
-0.01
0.13
0.33
0.56
0.80
0.97
1.03
0.95
0.80
0.64
0.52
0.45
0.37
0.23
0.06
-0.07
-0.06
0.15
0.48
0.79
0.89
0.70
0.26
-0.29
-0.76
-1.03
-1.09
-0.99
-0.84
-0.69
-0.54
-0.39
-0.24
-0.14
-0.15
-0.25
-0.42
-0.57
-0.62
-0.55
-0.37
-0.12
0.15
0.39
0.56
0.61
0.51
0.28
-0.02
-0.29
-0.46
-0.52
-0.53
-0.57
-0.68
-0.83
-0.92
-0.87
-0.66
-0.34
-0.01
0.24
0.40
0.47
0.48
0.43
0.30
0.09
-0.15
-0.32
-0.32
-0.14
0.16
0.45
0.63
0.68
0.64
0.58
0.50
0.38
0.18
-0.07
-0.27
-0.31
-0.12
0.26
0.66
0.93
0.97
0.79
0.52
0.27
0.13
0.09
0.09
0.05
-0.02
-0.08
-0.08
0.03
0.19
0.34
0.40
0.32
0.13
-0.09
-0.26
-0.35
-0.38
-0.38
-0.38
-0.40
-0.42
-0.42
-0.41
-0.39
-0.37
-0.32
-0.21
-0.03
0.20
0.43
0.61
0.71
0.75
0.72
0.66
0.56
0.41
0.23
0.04
-0.08
-0.10
0.02
0.23
0.45
0.62
0.70
0.67
0.57
0.42
0.28
0.19
0.15
0.20
0.29
0.40
0.48
0.49
0.47
0.43
0.40
0.38
0.34
0.24
0.05
-0.24
-0.59
-0.93
-1.22
-1.40
-1.45
-1.36
-1.13
-0.80
-0.42
-0.04
0.27
0.43
0.40
0.16
-0.19
-0.54
-0.74
-0.71
-0.46
-0.11
0.20
0.38
0.38
0.25
0.08
-0.07
-0.16
-0.22
-0.31
-0.42
-0.56
-0.67
-0.71
-0.67
-0.57
-0.51
-0.55
-0.75
-1.07
-1.43
-1.68
-1.76
-1.67
-1.51
-1.44
-1.53
-1.80
-2.16
-2.49
-2.72
-2.82
-2.84
-2.81
-2.71
-2.48
-2.06
-1.44
-0.75
-0.14
0.23
0.26
0.02
-0.37
-0.76
-1.06
-1.27
-1.43
-1.62
-1.85
-2.11
-2.37
-2.62
-2.88
-3.21
-3.61
-4.06
-4.49
-4.79
-4.95
-4.96
-4.85
-4.64
-4.33
-3.91
-3.40
-2.84
-2.29
-1.77
-1.24
-0.68
-0.10
0.45
0.88
1.21
1.51
1.98
2.76
3.88
5.18
6.43
7.39
8.03
8.43
8.79
9.22
9.71
10.15
10.40
10.37
10.09
9.69
9.25
8.82
8.37
7.85
7.22
6.51
5.77
5.05
4.32
3.54
2.68
1.76
0.87
0.09
-0.50
-0.94
-1.32
-1.74
-2.24
-2.80
-3.31
-3.61
-3.62
-3.30
-2.71
-1.97
-1.23
-0.59
-0.12
0.17
0.32
0.39
0.39
0.29
0.07
-0.29
-0.79
-1.44
-2.22
-3.11
-4.02
-4.84
-5.44
-5.71
-5.64
-5.28
-4.71
-3.99
-3.15
-2.21
-1.21
-0.22
0.64
1.27
1.67
1.91
2.09
2.29
2.48
2.56
2.43
2.03
1.43
0.74
0.14
-0.25
-0.35
-0.17
0.20
0.64
1.05
1.34
1.43
1.30
1.00
0.60
0.20
-0.10
-0.25
-0.27
-0.20
-0.10
-0.04
-0.02
-0.05
-0.12
-0.21
-0.34
-0.50
-0.67
-0.78
-0.74
-0.49
-0.07
0.41
0.81
1.06
1.14
1.16
1.21
1.33
1.43
1.39
1.10
0.61
0.06
-0.32
-0.43
-0.27
-0.02
0.16
0.16
0.03
-0.09
-0.07
0.11
0.41
0.72
0.96
1.10
1.15
1.13
1.02
0.80
0.47
0.09
-0.27
-0.55
-0.77
-0.99
-1.25
-1.52
-1.70
-1.74
-1.62
-1.41
-1.24
-1.16
-1.16
-1.16
-1.08
-0.93
-0.76
-0.65
-0.64
-0.68
-0.71
-0.68
-0.61
-0.56
-0.59
-0.68
-0.79
-0.83
-0.79
-0.71
-0.64
-0.61
-0.60
-0.54
-0.36
-0.06
0.28
0.54
0.66
0.60
0.42
0.22
0.05
-0.04
-0.06
-0.02
0.11
0.35
0.71
1.12
1.47
1.66
1.61
1.35
0.98
0.61
0.29
0.02
-0.25
-0.53
-0.79
-0.97
-1.00
-0.92
-0.82
-0.81
-0.95
-1.19
-1.39
-1.42
-1.22
-0.84
-0.41
-0.06
0.16
0.24
0.26
0.25
0.25
0.24
0.22
0.21
0.22
0.25
0.28
0.29
0.26
0.22
0.19
0.21
0.28
0.36
0.39
0.31
0.13
-0.11
-0.31
-0.41
-0.39
-0.28
-0.15
-0.06
-0.05
-0.11
-0.18
-0.23
-0.23
-0.24
-0.31
-0.46
-0.63
-0.67
-0.47
-0.03
0.55
1.03
1.22
1.05
0.61
0.11
-0.29
-0.50
-0.55
-0.54
-0.52
-0.52
-0.50
-0.42
-0.29
-0.15
-0.06
-0.02
-0.02
-0.01
0.07
0.21
0.40
0.59
0.73
0.81
0.86
0.90
0.94
0.96
0.90
0.74
0.49
0.19
-0.05
-0.16
-0.13
-0.01
0.14
0.25
0.27
0.18
0.00
-0.23
-0.43
-0.55
-0.57
-0.50
-0.41
-0.37
-0.41
-0.50
-0.54
-0.48
-0.32
-0.11
0.05
0.10
0.00
-0.19
-0.42
-0.62
-0.76
-0.79
-0.68
-0.44
-0.10
0.27
0.60
0.83
0.94
0.93
0.85
0.72
0.55
0.40
0.31
0.31
0.39
0.47
0.44
0.25
-0.07
-0.40
-0.63
-0.70
-0.65
-0.60
-0.63
-0.75
-0.90
-0.97
-0.89
-0.65
-0.34
-0.05
0.16
0.24
0.21
0.13
0.07
0.11
0.25
0.47
0.68
0.82
0.85
0.75
0.58
0.35
0.11
-0.12
-0.32
-0.46
-0.53
-0.53
-0.49
-0.41
-0.29
-0.16
-0.06
-0.04
-0.12
-0.31
-0.53
-0.65
-0.58
-0.32
0.05
0.41
0.64
0.68
0.58
0.41
0.26
0.19
0.19
0.19
0.16
0.06
-0.09
-0.23
-0.32
-0.33
-0.27
-0.18
-0.08
0.02
0.09
0.14
0.15
0.15
0.13
0.09
0.04
-0.03
-0.13
-0.25
-0.32
-0.31
-0.17
0.08
0.37
0.61
0.72
0.70
0.58
0.41
0.23
0.07
-0.05
-0.13
-0.11
-0.00
0.18
0.35
0.45
0.44
0.33
0.18
0.04
-0.09
-0.21
-0.34
-0.43
-0.44
-0.32
-0.13
0.04
0.07
-0.05
-0.24
-0.37
-0.35
-0.20
-0.03
0.04
-0.07
-0.31
-0.56
-0.69
-0.62
-0.35
0.04
0.47
0.85
1.09
1.16
1.06
0.84
0.57
0.31
0.11
-0.01
-0.08
-0.09
-0.05
0.02
0.11
0.16
0.12
-0.04
-0.27
-0.49
-0.60
-0.54
-0.34
-0.10
0.05
0.02
-0.20
-0.52
-0.83
-1.03
-1.06
-0.95
-0.73
-0.49
-0.27
-0.10
0.02
0.11
0.18
0.24
0.28
0.31
0.33
0.36
0.43
0.54
0.67
0.74
0.69
0.50
0.19
-0.16
-0.42
-0.52
-0.46
-0.29
-0.11
0.01
0.07
0.11
0.22
0.41
0.63
0.80
0.85
0.75
0.53
0.27
0.02
-0.20
-0.37
-0.47
-0.44
-0.24
0.09
0.46
0.74
0.79
0.61
0.28
-0.09
-0.35
-0.46
-0.43
-0.31
-0.16
-0.03
0.03
-0.03
-0.20
-0.43
-0.66
-0.79
-0.78
-0.63
-0.43
-0.26
-0.16
-0.11
-0.09
-0.02
0.11
0.32
0.54
0.73
0.83
0.80
0.65
0.47
0.35
0.33
0.42
0.53
0.56
0.43
0.15
-0.18
-0.46
-0.59
-0.54
-0.37
-0.14
0.08
0.24
0.33
0.34
0.27
0.13
-0.07
-0.29
-0.48
-0.65
-0.76
-0.81
-0.80
-0.72
-0.57
-0.40
-0.23
-0.09
0.01
0.07
0.07
-0.01
-0.21
-0.51
-0.83
-1.06
-1.10
-0.87
-0.41
0.12
0.58
0.82
0.81
0.59
0.28
-0.03
-0.25
-0.33
-0.26
-0.07
0.17
0.38
0.51
0.56
0.57
0.61
0.73
0.90
1.05
1.08
0.92
0.59
0.17
-0.20
-0.42
-0.47
-0.43
-0.38
-0.41
-0.49
-0.55
-0.52
-0.34
-0.08
0.19
0.36
0.37
0.23
0.04
-0.13
-0.22
-0.19
-0.08
0.04
0.11
0.08
-0.08
-0.31
-0.54
-0.68
-0.68
-0.54
-0.30
-0.06
0.10
0.12
0.00
-0.19
-0.36
-0.40
-0.29
-0.06
0.18
0.31
0.28
0.11
-0.09
-0.21
-0.21
-0.09
0.09
0.30
0.49
0.65
0.75
0.75
0.65
0.47
0.29
0.20
0.23
0.33
0.41
0.42
0.37
0.35
0.44
0.64
0.85
0.93
0.79
0.43
-0.02
-0.41
-0.64
-0.69
-0.63
-0.54
-0.50
-0.54
-0.65
-0.79
-0.91
-0.95
-0.88
-0.72
-0.48
-0.22
0.02
0.20
0.32
0.36
0.34
0.30
0.26
0.28
0.37
0.50
0.59
0.56
0.37
0.05
-0.29
-0.55
-0.63
-0.51
-0.26
0.00
0.19
0.25
0.20
0.12
0.07
0.09
0.14
0.17
0.12
-0.01
-0.15
-0.24
-0.22
-0.11
0.01
0.09
0.09
0.05
0.04
0.08
0.17
0.23
0.23
0.16
0.06
-0.02
-0.03
-0.01
0.01
0.00
-0.03
-0.06
-0.04
0.03
0.11
0.16
0.17
0.16
0.13
0.12
0.09
0.03
-0.08
-0.21
-0.30
-0.28
-0.13
0.11
0.35
0.53
0.61
0.60
0.56
0.50
0.44
0.34
0.20
0.02
-0.18
-0.34
-0.42
-0.39
-0.30
-0.20
-0.16
-0.23
-0.35
-0.45
-0.42
-0.23
0.08
0.36
0.49
0.41
0.17
-0.11
-0.31
-0.39
-0.37
-0.30
-0.19
-0.04
0.19
0.46
0.70
0.78
0.65
0.30
-0.16
-0.57
-0.79
-0.76
-0.52
-0.17
0.18
0.44
0.57
0.56
0.43
0.19
-0.12
-0.47
-0.80
-1.02
-1.07
-0.92
-0.62
-0.27
-0.02
0.06
-0.03
-0.21
-0.34
-0.37
-0.29
-0.15
0.00
0.12
0.21
0.27
0.27
0.21
0.07
-0.12
-0.29
-0.39
-0.35
-0.20
0.01
0.22
0.37
0.45
0.47
0.46
0.45
0.48
0.59
0.75
0.93
1.02
0.95
0.68
0.26
-0.23
-0.64
-0.90
-0.95
-0.83
-0.59
-0.32
-0.10
0.04
0.08
0.05
0.03
0.04
0.10
0.20
0.28
0.29
0.22
0.10
-0.00
-0.05
-0.05
-0.04
-0.08
-0.18
-0.31
-0.41
-0.40
-0.27
-0.09
0.07
0.13
0.09
0.02
0.02
0.14
0.37
0.60
0.75
0.75
0.63
0.47
0.32
0.21
0.09
-0.09
-0.29
-0.44
-0.46
-0.30
-0.02
0.27
0.45
0.46
0.34
0.18
0.07
0.06
0.11
0.16
0.16
0.10
-0.01
-0.12
-0.20
-0.27
-0.35
-0.49
-0.67
-0.83
-0.88
-0.76
-0.47
-0.11
0.17
0.27
0.21
0.07
0.03
0.18
0.51
0.91
1.21
1.32
1.22
0.98
0.68
0.40
0.14
-0.08
-0.26
-0.41
-0.52
-0.63
-0.76
-0.89
-0.97
-0.91
-0.64
-0.19
0.33
0.74
0.91
0.83
0.58
0.28
0.06
-0.06
-0.11
-0.16
-0.21
-0.22
-0.13
0.08
0.33
0.49
0.43
0.11
-0.39
-0.92
-1.31
-1.43
-1.27
-0.91
-0.49
-0.11
0.14
0.24
0.20
0.07
-0.09
-0.20
-0.19
-0.06
0.19
0.45
0.63
0.64
0.49
0.22
-0.06
-0.25
-0.32
-0.27
-0.17
-0.06
0.06
0.17
0.26
0.28
0.16
-0.10
-0.43
-0.71
-0.80
-0.65
-0.31
0.07
0.36
0.48
0.46
0.39
0.34
0.32
0.29
0.17
-0.02
-0.25
-0.42
-0.47
-0.39
-0.28
-0.23
-0.31
-0.50
-0.72
-0.84
-0.78
-0.54
-0.22
0.06
0.23
0.26
0.22
0.21
0.29
0.46
0.65
0.79
0.82
0.74
0.59
0.45
0.35
0.31
0.32
0.36
0.39
0.40
0.38
0.36
0.39
0.47
0.58
0.66
0.62
0.44
0.14
-0.22
-0.57
-0.86
-1.08
-1.23
-1.28
-1.19
-0.96
-0.62
-0.25
0.04
0.20
0.24
0.22
0.21
0.25
0.31
0.32
0.24
0.04
-0.22
-0.47
-0.66
-0.75
-0.76
-0.72
-0.65
-0.51
-0.30
-0.00
0.31
0.56
0.66
0.61
0.48
0.39
0.41
0.55
0.73
0.84
0.80
0.62
0.36
0.11
-0.06
-0.14
-0.14
-0.07
0.03
0.15
0.25
0.32
0.34
0.31
0.25
0.16
0.06
-0.03
-0.14
-0.24
-0.35
-0.46
-0.55
-0.58
-0.52
-0.33
-0.02
0.35
0.69
0.88
0.85
0.61
0.25
-0.10
-0.31
-0.32
-0.17
0.02
0.13
0.09
-0.10
-0.34
-0.56
-0.69
-0.74
-0.73
-0.68
-0.60
-0.51
-0.44
-0.43
-0.50
-0.64
-0.77
-0.78
-0.61
-0.24
0.24
0.68
0.95
0.95
0.72
0.39
0.12
0.06
0.25
0.59
0.93
1.08
0.96
0.60
0.13
-0.28
-0.51
-0.55
-0.44
-0.25
-0.02
0.24
0.53
0.81
1.00
1.02
0.84
0.51
0.13
-0.17
-0.30
-0.27
-0.17
-0.07
-0.05
-0.11
-0.27
-0.47
-0.71
-0.91
-1.02
-0.99
-0.77
-0.41
0.01
0.40
0.68
0.85
0.92
0.92
0.87
0.77
0.59
0.33
0.03
-0.26
-0.46
-0.54
-0.48
-0.34
-0.18
-0.08
-0.12
-0.27
-0.50
-0.72
-0.84
-0.85
-0.79
-0.72
-0.66
-0.62
-0.55
-0.42
-0.23
-0.01
0.20
0.36
0.47
0.53
0.57
0.57
0.57
0.57
0.58
0.61
0.60
0.50
0.25
-0.14
-0.58
-0.92
-1.02
-0.83
-0.42
0.06
0.43
0.60
0.56
0.39
0.19
0.04
-0.02
0.01
0.10
0.23
0.36
0.49
0.61
0.71
0.78
0.79
0.72
0.55
0.28
-0.05
-0.36
-0.57
-0.58
-0.42
-0.18
0.01
0.00
-0.21
-0.56
-0.90
-1.08
-1.05
-0.81
-0.43
-0.02
0.36
0.66
0.81
0.81
0.65
0.37
0.04
-0.22
-0.36
-0.33
-0.19
0.00
0.18
0.32
0.40
0.48
0.57
0.71
0.87
0.99
0.99
0.82
0.48
0.06
-0.34
-0.63
-0.77
-0.78
-0.70
-0.59
-0.47
-0.34
-0.19
-0.05
0.04
0.06
0.00
-0.08
-0.14
-0.13
-0.06
0.02
0.03
-0.06
-0.23
-0.44
-0.61
-0.69
-0.66
-0.53
-0.34
-0.12
0.10
0.29
0.41
0.42
0.33
0.16
-0.03
-0.19
-0.27
-0.26
-0.13
0.10
0.41
0.74
1.02
1.16
1.09
0.81
0.38
-0.08
-0.46
-0.69
-0.79
-0.80
-0.78
-0.73
-0.64
-0.47
-0.22
0.05
0.28
0.40
0.38
0.22
-0.01
-0.27
-0.53
-0.77
-0.99
-1.14
-1.18
-1.07
-0.80
-0.40
0.09
0.61
1.10
1.48
1.68
1.66
1.44
1.08
0.69
0.36
0.12
-0.04
-0.15
-0.27
-0.40
-0.51
-0.58
-0.59
-0.56
-0.50
-0.41
-0.28
-0.09
0.13
0.31
0.38
0.29
0.05
-0.29
-0.63
-0.91
-1.08
-1.09
-0.94
-0.61
-0.16
0.31
0.70
0.91
0.92
0.80
0.67
0.62
0.63
0.63
0.53
0.29
0.01
-0.15
-0.07
0.24
0.63
0.89
0.85
0.50
-0.01
-0.50
-0.81
-0.90
-0.83
-0.70
-0.56
-0.42
-0.26
-0.06
0.16
0.36
0.46
0.44
0.29
0.04
-0.28
-0.59
-0.82
-0.90
-0.81
-0.54
-0.15
0.27
0.60
0.77
0.75
0.57
0.30
0.02
-0.19
-0.30
-0.28
-0.16
0.04
0.25
0.41
0.45
0.36
0.16
-0.08
-0.25
-0.29
-0.16
0.09
0.35
0.51
0.53
0.41
0.21
0.03
-0.10
-0.18
-0.24
-0.32
-0.38
-0.38
-0.30
-0.15
-0.02
-0.01
-0.17
-0.45
-0.73
-0.88
-0.84
-0.61
-0.30
0.02
0.27
0.47
0.67
0.95
1.34
1.89
2.60
3.51
4.63
5.89
7.23
8.51
9.58
10.35
10.76
10.83
10.64
10.30
9.84
9.25
8.40
7.18
5.59
3.75
1.91
0.36
-0.73
-1.30
-1.46
-1.34
-1.03
-0.61
-0.18
0.12
0.04
-0.61
-1.87
-3.56
-5.36
-6.91
-7.98
-8.52
-8.65
-8.50
-8.23
-7.89
-7.55
-7.22
-6.93
-6.63
-6.24
-5.68
-4.91
-3.97
-3.04
-2.28
-1.82
-1.63
-1.56
-1.41
-1.04
-0.41
0.35
1.06
1.58
1.83
1.81
1.61
1.39
1.37
1.72
2.51
3.61
4.75
5.56
5.72
5.06
3.62
1.66
-0.49
-2.49
-4.08
-5.15
-5.71
-5.83
-5.63
-5.23
-4.74
-4.23
-3.73
-3.25
-2.77
-2.31
-1.81
-1.27
-0.66
-0.03
0.55
1.02
1.33
1.49
1.55
1.56
1.62
1.74
1.92
2.11
2.24
2.21
1.95
1.44
0.74
-0.05
-0.79
-1.40
-1.87
-2.26
-2.64
-3.01
-3.32
-3.46
-3.32
-2.85
-2.13
-1.30
-0.54
-0.01
0.21
0.17
-0.06
-0.32
-0.49
-0.49
-0.32
-0.00
0.37
0.69
0.88
0.92
0.83
0.70
0.63
0.66
0.75
0.83
0.80
0.63
0.38
0.12
-0.04
-0.10
-0.13
-0.21
-0.35
-0.52
-0.61
-0.55
-0.35
-0.07
0.17
0.33
0.40
0.45
0.52
0.64
0.76
0.85
0.88
0.86
0.84
0.85
0.89
0.93
0.92
0.84
0.70
0.55
0.44
0.35
0.26
0.12
-0.06
-0.22
-0.33
-0.32
-0.22
-0.09
-0.02
-0.06
-0.21
-0.44
-0.68
-0.90
-1.05
-1.14
-1.15
-1.07
-0.89
-0.66
-0.44
-0.27
-0.17
-0.11
-0.07
-0.03
0.03
0.07
0.09
0.06
0.02
-0.03
-0.05
-0.03
0.02
0.10
0.21
0.32
0.41
0.44
0.39
0.29
0.15
0.00
-0.14
-0.28
-0.39
-0.43
-0.36
-0.16
0.16
0.49
0.73
0.80
0.67
0.44
0.21
0.10
0.14
0.29
0.46
0.54
0.46
0.25
-0.03
-0.25
-0.32
-0.21
0.01
0.23
0.32
0.22
-0.05
-0.39
-0.67
-0.83
-0.85
-0.77
-0.64
-0.48
-0.32
-0.18
-0.08
-0.08
-0.20
-0.39
-0.57
-0.62
-0.47
-0.15
0.21
0.47
0.55
0.45
0.27
0.11
0.04
0.04
0.07
0.09
0.11
0.14
0.20
0.26
0.27
0.18
0.00
-0.22
-0.42
-0.54
-0.56
-0.49
-0.36
-0.19
-0.00
0.17
0.27
0.25
0.09
-0.17
-0.44
-0.61
-0.62
-0.47
-0.22
0.02
0.18
0.21
0.14
0.04
-0.06
-0.10
-0.11
-0.10
-0.09
-0.10
-0.11
-0.12
-0.13
-0.15
-0.20
-0.28
-0.38
-0.46
-0.46
-0.36
-0.17
0.06
0.26
0.33
0.20
-0.10
-0.49
-0.87
-1.11
-1.14
-0.96
-0.63
-0.24
0.06
0.20
0.15
-0.07
-0.33
-0.49
-0.46
-0.21
0.17
0.53
0.70
0.62
0.34
-0.02
-0.38
-0.65
-0.86
-1.00
-1.05
-0.98
-0.73
-0.31
0.21
0.71
1.09
1.29
1.34
1.31
1.26
1.23
1.22
1.20
1.11
0.95
0.73
0.52
0.39
0.40
0.54
0.75
0.93
1.00
0.92
0.71
0.41
0.05
-0.33
-0.73
-1.11
-1.41
-1.56
-1.50
-1.22
-0.79
-0.32
0.06
0.24
0.24
0.08
-0.11
-0.25
-0.32
-0.32
-0.29
-0.26
-0.25
-0.22
-0.14
-0.00
0.19
0.36
0.44
0.36
0.07
-0.43
-1.09
-1.85
-2.61
-3.26
-3.72
-3.86
-3.63
-3.02
-2.11
-1.05
-0.03
0.79
1.31
1.51
1.46
1.19
0.77
0.26
-0.25
-0.66
-0.90
-0.96
-0.89
-0.83
-0.83
-0.90
-0.95
-0.88
-0.64
-0.28
0.09
0.35
0.42
0.33
0.16
0.01
-0.06
-0.02
0.08
0.24
0.41
0.58
0.73
0.84
0.89
0.87
0.78
0.65
0.47
0.26
-0.00
-0.29
-0.57
-0.79
-0.93
-1.01
-1.05
-1.03
-0.88
-0.50
0.19
1.18
2.30
3.32
3.99
4.21
4.00
3.51
2.90
2.33
1.86
1.48
1.16
0.87
0.60
0.38
0.23
0.18
0.22
0.32
0.42
0.47
0.42
0.30
0.16
0.09
0.12
0.27
0.46
0.61
0.62
0.49
0.23
-0.08
-0.34
-0.48
-0.44
-0.23
0.13
0.56
0.98
1.27
1.34
1.14
0.69
0.11
-0.44
-0.80
-0.87
-0.65
-0.24
0.18
0.47
0.52
0.31
-0.10
-0.61
-1.08
-1.43
-1.60
-1.59
-1.44
-1.22
-1.01
-0.86
-0.79
-0.79
-0.83
-0.86
-0.84
-0.75
-0.57
-0.28
0.07
0.44
0.74
0.91
0.88
0.65
0.25
-0.23
-0.66
-0.93
-0.96
-0.79
-0.51
-0.24
-0.05
0.03
0.06
0.11
0.19
0.29
0.31
0.20
-0.03
-0.27
-0.38
-0.25
0.11
0.61
1.08
1.38
1.47
1.40
1.26
1.10
0.94
0.80
0.72
0.79
1.08
1.58
2.20
2.74
3.04
3.04
2.78
2.37
1.95
1.59
1.31
1.07
0.84
0.62
0.39
0.17
-0.02
-0.16
-0.20
-0.11
0.08
0.29
0.42
0.39
0.19
-0.11
-0.43
-0.69
-0.88
-1.00
-1.10
-1.16
-1.16
-1.05
-0.84
-0.58
-0.36
-0.26
-0.32
-0.49
-0.68
-0.80
-0.82
-0.73
-0.62
-0.57
-0.67
-0.91
-1.24
-1.50
-1.57
-1.42
-1.11
-0.77
-0.55
-0.50
-0.59
-0.72
-0.78
-0.75
-0.70
-0.70
-0.84
-1.11
-1.43
-1.69
-1.79
-1.65
-1.33
-0.91
-0.51
-0.23
-0.13
-0.17
-0.29
-0.44
-0.58
-0.73
-0.87
-0.97
-0.99
-0.85
-0.58
-0.22
0.11
0.30
0.30
0.12
-0.16
-0.45
-0.68
-0.78
-0.75
-0.63
-0.47
-0.37
-0.35
-0.41
-0.50
-0.51
-0.37
-0.09
0.24
0.52
0.66
0.62
0.44
0.19
-0.09
-0.36
-0.60
-0.76
-0.81
-0.71
-0.49
-0.23
-0.01
0.10
0.06
-0.08
-0.24
-0.35
-0.31
-0.07
0.37
0.96
1.53
1.94
2.08
2.01
1.87
1.86
2.04
2.34
2.57
2.53
2.15
1.56
0.95
0.50
0.26
0.18
0.17
0.15
0.17
0.30
0.55
0.84
1.01
0.94
0.59
0.09
-0.35
-0.56
-0.52
-0.34
-0.24
-0.35
-0.65
-0.98
-1.11
-0.89
-0.36
0.27
0.74
0.89
0.70
0.32
-0.07
-0.34
-0.48
-0.59
-0.77
-1.05
-1.37
-1.62
-1.71
-1.59
-1.30
-0.94
-0.58
-0.29
-0.10
0.02
0.09
0.13
0.17
0.21
0.26
0.31
0.35
0.37
0.34
0.30
0.29
0.33
0.46
0.64
0.79
0.84
0.72
0.49
0.24
0.08
0.09
0.20
0.34
0.39
0.35
0.25
0.17
0.11
0.05
-0.06
-0.23
-0.43
-0.58
-0.59
-0.49
-0.34
-0.28
-0.41
-0.74
-1.17
-1.55
-1.74
-1.65
-1.34
-0.88
-0.42
-0.09
0.05
-0.02
-0.27
-0.61
-0.96
-1.19
-1.26
-1.14
-0.90
-0.63
-0.42
-0.30
-0.29
-0.34
-0.40
-0.42
-0.34
-0.13
0.21
0.64
1.07
1.42
1.61
1.61
1.47
1.31
1.21
1.20
1.23
1.21
1.07
0.80
0.51
0.29
0.20
0.21
0.24
0.19
0.06
-0.11
-0.21
-0.22
-0.15
-0.05
0.04
0.13
0.24
0.40
0.55
0.63
0.59
0.44
0.27
0.15
0.15
0.25
0.41
0.59
0.75
0.87
0.89
0.75
0.39
-0.18
-0.87
-1.47
-1.82
-1.79
-1.40
-0.79
-0.17
0.30
0.52
0.50
0.31
0.01
-0.32
-0.63
-0.86
-0.94
-0.82
-0.48
-0.00
0.47
0.78
0.80
0.51
0.02
-0.47
-0.79
-0.85
-0.66
-0.35
-0.05
0.15
0.22
0.19
0.13
0.06
-0.02
-0.13
-0.31
-0.50
-0.62
-0.58
-0.36
-0.00
0.37
0.64
0.73
0.64
0.42
0.15
-0.10
-0.27
-0.32
-0.23
0.01
0.35
0.69
0.95
1.04
0.94
0.70
0.42
0.20
0.13
0.23
0.49
0.80
1.09
1.28
1.35
1.33
1.27
1.19
1.07
0.89
0.64
0.37
0.14
-0.01
-0.07
-0.11
-0.20
-0.41
-0.73
-1.10
-1.43
-1.61
-1.60
-1.38
-0.97
-0.43
0.15
0.68
1.04
1.16
1.02
0.66
0.22
-0.15
-0.33
-0.30
-0.15
0.01
0.09
0.09
0.05
0.07
0.17
0.32
0.45
0.51
0.48
0.41
0.33
0.27
0.20
0.11
0.00
-0.09
-0.13
-0.11
-0.03
0.04
0.07
0.09
0.15
0.32
0.60
0.94
1.22
1.33
1.25
0.99
0.63
0.25
-0.11
-0.42
-0.69
-0.89
-1.01
-1.04
-0.99
-0.88
-0.77
-0.70
-0.70
-0.81
-0.97
-1.13
-1.21
-1.16
-0.98
-0.74
-0.50
-0.33
-0.28
-0.33
-0.49
-0.71
-0.95
-1.16
-1.28
-1.28
-1.19
-1.10
-1.12
-1.31
-1.62
-1.94
-2.12
-2.11
-1.92
-1.70
-1.59
-1.65
-1.86
-2.11
-2.27
-2.27
-2.09
-1.75
-1.32
-0.83
-0.35
0.04
0.31
0.46
0.57
0.78
1.20
1.87
2.72
3.60
4.35
4.88
5.16
5.23
5.14
4.94
4.63
4.25
3.84
3.50
3.28
3.21
3.22
3.22
3.10
2.81
2.41
2.03
1.75
1.61
1.52
1.36
1.09
0.71
0.32
0.01
-0.16
-0.24
-0.28
-0.32
-0.35
-0.32
-0.20
-0.01
0.18
0.28
0.19
-0.05
-0.38
-0.69
-0.86
-0.86
-0.68
-0.38
-0.06
0.21
0.33
0.25
-0.07
-0.57
-1.17
-1.71
-2.07
-2.22
-2.21
-2.16
-2.17
-2.30
-2.49
-2.66
-2.75
-2.76
-2.74
-2.75
-2.79
-2.80
-2.72
-2.49
-2.15
-1.80
-1.53
-1.42
-1.44
-1.55
-1.66
-1.72
-1.71
-1.64
-1.55
-1.46
-1.44
-1.50
-1.66
-1.86
-2.03
-2.08
-1.97
-1.68
-1.28
-0.83
-0.39
0.02
0.40
0.77
1.14
1.51
1.82
2.00
2.00
1.79
1.42
1.00
0.65
0.47
0.48
0.62
0.79
0.90
0.94
0.94
0.95
1.00
1.12
1.26
1.36
1.40
1.36
1.26
1.18
1.18
1.30
1.53
1.78
1.96
1.99
1.87
1.68
1.50
1.40
1.39
1.40
1.39
1.35
1.33
1.37
1.50
1.66
1.76
1.71
1.47
1.10
0.69
0.33
0.07
-0.11
-0.28
-0.49
-0.76
-1.05
-1.29
-1.41
-1.41
-1.30
-1.17
-1.07
-1.03
-1.04
-1.05
-1.02
-0.92
-0.77
-0.63
-0.53
-0.53
-0.63
-0.81
-1.02
-1.21
-1.35
-1.38
-1.28
-1.05
-0.73
-0.38
-0.11
-0.02
-0.15
-0.47
-0.88
-1.26
-1.51
-1.58
-1.47
-1.19
-0.82
-0.44
-0.16
-0.09
-0.28
-0.73
-1.32
-1.89
-2.27
-2.39
-2.24
-1.89
-1.45
-1.01
-0.65
-0.41
-0.29
-0.26
-0.24
-0.16
0.05
0.40
0.83
1.25
1.60
1.89
2.15
2.43
2.73
2.97
3.05
2.94
2.65
2.28
1.95
1.71
1.57
1.48
1.38
1.27
1.21
1.29
1.57
2.12
2.93
3.94
4.98
5.86
6.32
6.20
5.49
4.34
3.02
1.77
0.81
0.20
-0.09
-0.14
-0.07
-0.00
-0.01
-0.16
-0.50
-1.00
-1.64
-2.39
-3.20
-4.01
-4.76
-5.42
-5.96
-6.42
-6.85
-7.32
-7.84
-8.30
-8.59
-8.61
-8.37
-7.98
-7.60
-7.31
-7.13
-6.93
-6.60
-6.09
-5.44
-4.79
-4.21
-3.77
-3.39
-3.01
-2.58
-2.19
-1.95
-1.99
-2.32
-2.82
-3.30
-3.55
-3.43
-2.87
-1.91
-0.62
0.92
2.55
4.15
5.59
6.80
7.77
8.48
8.91
9.01
8.76
8.22
7.58
7.00
6.62
6.36
6.04
5.46
4.57
3.52
2.58
1.98
1.81
1.95
2.15
2.20
2.01
1.62
1.16
0.75
0.48
0.38
0.40
0.50
0.60
0.60
0.47
0.24
-0.04
-0.27
-0.40
-0.42
-0.40
-0.41
-0.46
-0.52
-0.53
-0.44
-0.24
0.04
0.31
0.52
0.63
0.64
0.58
0.49
0.41
0.34
0.28
0.22
0.18
0.15
0.15
0.19
0.26
0.35
0.41
0.40
0.28
0.07
-0.17
-0.32
-0.26
0.12
0.80
1.69
2.55
3.18
3.41
3.21
2.67
1.97
1.30
0.80
0.54
0.48
0.53
0.59
0.55
0.40
0.17
-0.08
-0.28
-0.40
-0.45
-0.48
-0.54
-0.65
-0.82
-1.01
-1.17
-1.26
-1.25
-1.11
-0.88
-0.58
-0.27
0.02
0.24
0.35
0.34
0.22
0.01
-0.23
-0.47
-0.65
-0.77
-0.80
-0.74
-0.59
-0.37
-0.12
0.14
0.36
0.55
0.71
0.84
0.91
0.89
0.76
0.52
0.24
0.00
-0.10
-0.05
0.13
0.35
0.52
0.59
0.56
0.47
0.41
0.42
0.52
0.67
0.80
0.86
0.81
0.65
0.43
0.24
0.16
0.25
0.53
0.92
1.34
1.66
1.86
1.98
2.10
2.30
2.60
2.95
3.26
3.47
3.59
3.66
3.78
3.98
4.25
4.49
4.60
4.51
4.19
3.66
3.01
2.31
1.56
0.76
-0.14
-1.15
-2.23
-3.27
-4.17
-4.83
-5.24
-5.38
-5.26
-4.88
-4.26
-3.54
-2.93
-2.63
-2.78
-3.32
-4.03
-4.63
-4.96
-4.99
-4.85
-4.68
-4.52
-4.26
-3.72
-2.76
-1.42
0.06
1.36
2.13
2.23
1.68
0.70
-0.43
-1.47
-2.27
-2.77
-2.96
-2.86
-2.49
-1.97
-1.44
-1.14
-1.22
-1.73
-2.58
-3.50
-4.20
-4.48
-4.25
-3.58
-2.64
-1.57
-0.47
0.65
1.75
2.77
3.57
3.98
3.93
3.45
2.75
2.10
1.73
1.71
1.96
2.31
2.59
2.71
2.74
2.78
2.90
3.08
3.23
3.20
2.95
2.50
2.01
1.61
1.40
1.38
1.49
1.61
1.62
1.44
1.03
0.41
-0.37
-1.17
-1.89
-2.42
-2.74
-2.87
-2.86
-2.74
-2.46
-1.99
-1.30
-0.45
0.42
1.12
1.52
1.56
1.28
0.82
0.27
-0.29
-0.94
-1.72
-2.69
-3.81
-4.96
-6.08
-7.18
-8.35
-9.61
-10.83
-11.62
-11.53
-10.20
-7.53
-3.79
0.46
4.56
7.86
9.85
10.30
9.34
7.45
5.35
3.79
3.26
3.85
5.24
6.91
8.33
9.13
9.17
8.37
6.74
4.35
1.42
-1.69
-4.51
-6.58
-7.59
-7.46
-6.37
-4.69
-2.86
-1.28
-0.18
0.42
0.66
0.69
0.62
0.43
0.03
-0.62
-1.45
-2.25
-2.79
-2.89
-2.51
-1.77
-0.91
-0.15
0.34
0.51
0.46
0.33
0.27
0.33
0.50
0.68
0.79
0.81
0.76
0.70
0.64
0.58
0.48
0.34
0.16
0.02
-0.06
-0.04
0.01
0.03
-0.04
-0.21
-0.44
-0.64
-0.76
-0.80
-0.81
-0.86
-1.00
-1.23
-1.48
-1.65
-1.67
-1.48
-1.09
-0.55
0.04
0.55
0.85
0.85
0.60
0.19
-0.18
-0.38
-0.32
-0.07
0.26
0.52
0.65
0.64
0.54
0.43
0.34
0.29
0.28
0.31
0.40
0.56
0.81
1.12
1.46
1.74
1.86
1.79
1.56
1.23
0.91
0.66
0.53
0.50
0.53
0.54
0.49
0.35
0.15
-0.06
-0.17
-0.11
0.16
0.58
1.04
1.40
1.58
1.57
1.44
1.27
1.15
1.11
1.11
1.12
1.10
1.07
1.03
1.01
1.01
1.04
1.06
0.99
0.72
0.18
-0.65
-1.66
-2.64
-3.37
-3.69
-3.56
-3.13
-2.60
-2.15
-1.86
-1.69
-1.57
-1.43
-1.25
-1.04
-0.83
-0.64
-0.46
-0.25
0.00
0.29
0.59
0.87
1.10
1.26
1.32
1.30
1.26
1.24
1.31
1.46
1.63
1.73
1.69
1.49
1.18
0.85
0.58
0.41
0.32
0.29
0.25
0.17
0.08
-0.03
-0.15
-0.28
-0.42
-0.59
-0.75
-0.85
-0.88
-0.80
-0.66
-0.50
-0.39
-0.35
-0.38
-0.46
-0.56
-0.62
-0.63
-0.57
-0.42
-0.18
0.15
0.55
0.96
1.32
1.59
1.73
1.74
1.66
1.50
1.29
1.03
0.72
0.39
0.05
-0.28
-0.56
-0.76
-0.83
-0.76
-0.58
-0.33
-0.11
0.00
-0.03
-0.17
-0.35
-0.47
-0.54
-0.57
-0.65
-0.80
-0.99
-1.16
-1.23
-1.19
-1.10
-1.05
-1.07
-1.16
-1.25
-1.29
-1.26
-1.18
-1.06
-0.91
-0.69
-0.42
-0.14
0.08
0.17
0.14
0.07
0.08
0.25
0.57
0.98
1.36
1.60
1.67
1.57
1.35
1.08
0.83
0.64
0.51
0.40
0.27
0.09
-0.13
-0.32
-0.44
-0.46
-0.44
-0.49
-0.67
-0.99
-1.40
-1.78
-2.05
-2.15
-2.05
-1.81
-1.50
-1.22
-1.04
-1.02
-1.14
-1.37
-1.64
-1.88
-2.05
-2.08
-1.91
-1.47
-0.74
0.23
1.27
2.17
2.76
2.95
2.79
2.43
2.04
1.75
1.59
1.55
1.58
1.64
1.73
1.84
1.94
2.02
2.07
2.08
2.08
2.11
2.18
2.28
2.38
2.46
2.48
2.46
2.38
2.25
2.04
1.73
1.31
0.81
0.25
-0.31
-0.84
-1.28
-1.59
-1.73
-1.71
-1.56
-1.35
-1.15
-1.03
-0.98
-0.99
-1.03
-1.09
-1.15
-1.19
-1.19
-1.15
-1.05
-0.92
-0.78
-0.66
-0.55
-0.45
-0.37
-0.36
-0.49
-0.79
-1.24
-1.76
-2.23
-2.56
-2.72
-2.69
-2.50
-2.18
-1.76
-1.31
-0.94
-0.79
-0.99
-1.56
-2.36
-3.16
-3.65
-3.62
-3.01
-1.97
-0.77
0.27
0.93
1.16
1.07
0.84
0.66
0.61
0.65
0.72
0.74
0.74
0.76
0.90
1.17
1.53
1.85
2.03
2.02
1.85
1.61
1.40
1.23
1.08
0.91
0.69
0.44
0.24
0.13
0.12
0.17
0.21
0.21
0.19
0.20
0.26
0.32
0.31
0.16
-0.10
-0.39
-0.57
-0.55
-0.33
-0.01
0.28
0.44
0.45
0.40
0.38
0.47
0.66
0.86
1.00
1.04
0.99
0.92
0.88
0.89
0.91
0.91
0.85
0.75
0.63
0.48
0.30
0.06
-0.19
-0.40
-0.52
-0.50
-0.37
-0.21
-0.08
0.01
0.07
0.15
0.27
0.41
0.54
0.61
0.61
0.53
0.39
0.20
0.01
-0.10
-0.07
0.13
0.44
0.75
0.94
0.96
0.86
0.71
0.61
0.57
0.58
0.57
0.51
0.41
0.31
0.21
0.09
-0.18
-0.67
-1.38
-2.18
-2.83
-3.14
-3.03
-2.58
-2.01
-1.55
-1.31
-1.26
-1.29
-1.24
-1.04
-0.74
-0.41
-0.13
0.09
0.29
0.51
0.75
0.99
1.20
1.33
1.41
1.46
1.54
1.66
1.82
1.97
2.04
1.95
1.70
1.31
0.85
0.40
0.04
-0.20
-0.30
-0.31
-0.25
-0.14
-0.01
0.12
0.23
0.28
0.22
0.05
-0.21
-0.49
-0.71
-0.79
-0.71
-0.49
-0.24
-0.04
0.01
-0.09
-0.30
-0.50
-0.61
-0.58
-0.45
-0.31
-0.25
-0.31
-0.44
-0.58
-0.65
-0.63
-0.50
-0.32
-0.12
0.06
0.19
0.22
0.18
0.10
0.09
0.22
0.50
0.83
1.05
1.03
0.78
0.40
0.06
-0.12
-0.10
0.05
0.20
0.27
0.22
0.10
-0.02
-0.11
-0.15
-0.19
-0.31
-0.53
-0.82
-1.07
-1.16
-1.02
-0.72
-0.41
-0.27
-0.38
-0.66
-0.92
-0.98
-0.77
-0.35
0.09
0.39
0.49
0.44
0.34
0.28
0.25
0.20
0.10
-0.03
-0.13
-0.10
0.08
0.39
0.71
0.93
0.95
0.78
0.45
0.08
-0.21
-0.35
-0.29
-0.06
0.21
0.42
0.47
0.35
0.14
-0.04
-0.11
-0.08
-0.04
-0.07
-0.20
-0.35
-0.37
-0.16
0.26
0.72
1.01
1.00
0.68
0.16
-0.38
-0.76
-0.91
-0.79
-0.44
0.08
0.66
1.14
1.32
1.02
0.21
-0.99
-2.31
-3.44
-4.10
-4.21
-3.81
-3.10
-2.27
-1.46
-0.77
-0.20
0.27
0.63
0.89
1.03
1.09
1.10
1.12
1.21
1.37
1.59
1.81
2.00
2.13
2.24
2.36
2.52
2.66
2.74
2.68
2.46
2.12
1.73
1.36
1.03
0.70
0.34
-0.05
-0.40
-0.60
-0.54
-0.20
0.29
0.78
1.07
1.09
0.86
0.52
0.23
0.10
0.10
0.14
0.08
-0.09
-0.33
-0.52
-0.58
-0.54
-0.52
-0.63
-0.89
-1.18
-1.38
-1.36
-1.15
-0.88
-0.69
-0.61
-0.60
-0.51
-0.26
0.11
0.42
0.45
0.00
-0.96
-2.30
-3.78
-5.05
-5.82
-5.96
-5.51
-4.64
-3.61
-2.58
-1.60
-0.61
0.43
1.46
2.26
2.61
2.38
1.64
0.66
-0.22
-0.73
-0.82
-0.61
-0.31
-0.09
0.01
0.04
0.11
0.28
0.54
0.83
1.12
1.35
1.53
1.65
1.67
1.57
1.31
0.93
0.53
0.19
0.00
-0.02
0.09
0.25
0.40
0.53
0.63
0.72
0.81
0.92
1.05
1.19
1.32
1.41
1.43
1.41
1.45
1.67
2.15
2.87
3.63
4.16
4.22
3.67
2.58
1.12
-0.45
-1.92
-3.09
-3.81
-4.02
-3.74
-3.13
-2.43
-1.87
-1.61
-1.64
-1.88
-2.18
-2.45
-2.61
-2.63
-2.47
-2.12
-1.64
-1.15
-0.79
-0.67
-0.73
-0.79
-0.64
-0.16
0.56
1.31
1.84
1.98
1.75
1.32
0.89
0.62
0.57
0.69
0.89
1.09
1.27
1.40
1.48
1.48
1.37
1.16
0.89
0.66
0.58
0.75
1.18
1.82
2.50
3.03
3.24
3.02
2.36
1.35
0.16
-1.04
-2.06
-2.79
-3.18
-3.21
-2.94
-2.50
-1.98
-1.49
-1.06
-0.71
-0.42
-0.22
-0.14
-0.20
-0.39
-0.61
-0.77
-0.76
-0.54
-0.15
0.29
0.71
1.04
1.29
1.49
1.67
1.82
1.94
1.98
1.93
1.77
1.50
1.12
0.64
0.08
-0.51
-1.07
-1.51
-1.73
-1.66
-1.32
-0.78
-0.19
0.27
0.48
0.41
0.10
-0.31
-0.67
-0.88
-0.89
-0.73
-0.52
-0.38
-0.44
-0.82
-1.55
-2.58
-3.75
-4.84
-5.58
-5.81
-5.46
-4.65
-3.58
-2.46
-1.42
-0.53
0.20
0.74
1.04
1.05
0.82
0.46
0.15
0.06
0.25
0.67
1.16
1.60
1.88
2.03
2.09
2.16
2.29
2.50
2.76
3.01
3.15
3.10
2.81
2.32
1.74
1.19
0.79
0.57
0.45
0.32
0.07
-0.33
-0.85
-1.40
-1.88
-2.24
-2.44
-2.50
-2.45
-2.31
-2.13
-1.97
-1.87
-1.83
-1.82
-1.74
-1.49
-1.01
-0.36
0.30
0.68
0.58
-0.06
-1.03
-1.95
-2.37
-1.95
-0.63
1.42
3.83
6.18
8.14
9.53
10.33
10.61
10.43
9.86
8.97
7.82
6.54
5.31
4.30
3.61
3.22
3.03
2.88
2.65
2.29
1.81
1.23
0.55
-0.25
-1.18
-2.19
-3.21
-4.13
-4.90
-5.51
-5.95
-6.19
-6.20
-5.94
-5.45
-4.84
-4.30
-4.02
-4.17
-4.79
-5.83
-7.06
-8.23
-9.02
-9.23
-8.81
-7.88
-6.67
-5.43
-4.26
-3.18
-2.12
-1.02
0.14
1.33
2.47
3.51
4.37
4.99
5.32
5.33
5.09
4.74
4.42
4.22
4.17
4.23
4.34
4.44
4.47
4.43
4.27
4.01
3.69
3.36
3.06
2.79
2.54
2.31
2.09
1.90
1.73
1.53
1.23
0.77
0.15
-0.53
-1.16
-1.64
-1.97
-2.22
-2.53
-2.99
-3.63
-4.33
-4.93
-5.31
-5.41
-5.28
-5.02
-4.73
-4.46
-4.16
-3.78
-3.23
-2.48
-1.54
-0.46
0.65
1.67
2.45
2.88
2.96
2.75
2.42
2.13
1.98
2.03
2.23
2.51
2.79
3.02
3.14
3.10
2.85
2.36
1.67
0.83
-0.03
-0.77
-1.29
-1.55
-1.58
-1.46
-1.34
-1.30
-1.40
-1.60
-1.79
-1.87
-1.78
-1.57
-1.33
-1.19
-1.20
-1.30
-1.39
-1.35
-1.13
-0.77
-0.36
0.01
0.29
0.48
0.63
0.73
0.77
0.75
0.68
0.59
0.55
0.61
0.74
0.89
0.95
0.86
0.62
0.33
0.06
-0.12
-0.19
-0.21
-0.23
-0.28
-0.35
-0.42
-0.48
-0.55
-0.65
-0.81
-0.98
-1.09
-1.08
-0.94
-0.72
-0.50
-0.34
-0.26
-0.23
-0.20
-0.17
-0.12
-0.08
-0.08
-0.14
-0.29
-0.50
-0.74
-0.95
-1.09
-1.14
-1.12
-1.10
-1.12
-1.18
-1.27
-1.34
-1.41
-1.48
-1.53
-1.53
-1.41
-1.15
-0.79
-0.49
-0.41
-0.68
-1.27
-2.04
-2.76
-3.27
-3.46
-3.27
-2.71
-1.79
-0.57
0.82
2.22
3.40
4.19
4.55
4.58
4.49
4.50
4.72
5.09
5.44
5.56
5.33
4.77
4.06
3.42
3.03
2.92
3.03
3.24
3.49
3.79
4.19
4.72
5.32
5.87
6.24
6.37
6.27
5.99
5.55
4.91
4.02
2.82
1.40
-0.09
-1.43
-2.43
-2.99
-3.18
-3.14
-3.06
-3.09
-3.31
-3.68
-4.12
-4.55
-4.90
-5.18
-5.41
-5.66
-5.96
-6.35
-6.79
-7.25
-7.62
-7.77
-7.61
-7.11
-6.28
-5.25
-4.13
-3.06
-2.14
-1.41
-0.93
-0.70
-0.73
-0.96
-1.28
-1.56
-1.70
-1.65
-1.49
-1.34
-1.27
-1.27
-1.20
-0.87
-0.18
0.85
2.03
3.11
3.90
4.39
4.64
4.79
4.92
5.05
5.13
5.11
4.96
4.62
4.04
3.10
1.77
0.10
-1.68
-3.26
-4.31
-4.64
-4.26
-3.36
-2.22
-1.12
-0.23
0.38
0.77
1.08
1.43
1.91
2.53
3.22
3.85
4.27
4.37
4.11
3.52
2.70
1.76
0.83
-0.03
-0.80
-1.49
-2.15
-2.77
-3.31
-3.69
-3.85
-3.74
-3.40
-2.93
-2.41
-1.86
-1.24
-0.45
0.55
1.74
2.97
4.07
4.85
5.20
5.07
4.49
3.49
2.15
0.62
-0.92
-2.24
-3.15
-3.53
-3.42
-2.92
-2.19
-1.39
-0.62
0.05
0.60
0.99
1.26
1.40
1.44
1.40
1.28
1.06
0.72
0.27
-0.24
-0.74
-1.14
-1.40
-1.52
-1.53
-1.48
-1.39
-1.24
-1.00
-0.65
-0.18
0.34
0.85
1.26
1.53
1.63
1.57
1.33
0.93
0.35
-0.34
-1.01
-1.51
-1.69
-1.54
-1.12
-0.62
-0.20
0.00
-0.03
-0.25
-0.60
-0.96
-1.24
-1.35
-1.21
-0.86
-0.40
-0.01
0.14
-0.02
-0.39
-0.77
-0.95
-0.80
-0.37
0.18
0.63
0.83
0.70
0.29
-0.29
-0.92
-1.47
-1.89
-2.17
-2.31
-2.35
-2.29
-2.12
-1.83
-1.47
-1.11
-0.81
-0.60
-0.41
-0.13
0.34
0.98
1.69
2.28
2.60
2.60
2.32
1.87
1.36
0.87
0.45
0.12
-0.09
-0.16
-0.11
0.02
0.15
0.19
0.07
-0.23
-0.68
-1.21
-1.71
-2.07
-2.19
-2.08
-1.80
-1.45
-1.12
-0.86
-0.63
-0.38
-0.09
0.22
0.49
0.67
0.75
0.79
0.82
0.86
0.89
0.88
0.85
0.86
0.97
1.19
1.45
1.63
1.64
1.51
1.34
1.26
1.32
1.47
1.60
1.62
1.52
1.34
1.18
1.09
1.06
1.02
0.90
0.68
0.36
-0.02
-0.39
-0.71
-0.93
-1.02
-0.97
-0.80
-0.56
-0.32
-0.12
-0.01
0.04
0.04
0.02
0.01
0.04
0.11
0.21
0.33
0.43
0.47
0.46
0.40
0.35
0.35
0.40
0.50
0.61
0.72
0.81
0.87
0.87
0.75
0.48
0.10
-0.31
-0.62
-0.74
-0.66
-0.44
-0.19
-0.02
0.00
-0.10
-0.29
-0.50
-0.68
-0.80
-0.82
-0.75
-0.59
-0.38
-0.20
-0.12
-0.19
-0.39
-0.65
-0.83
-0.84
-0.62
-0.25
0.17
0.48
0.60
0.52
0.32
0.09
-0.09
-0.18
-0.21
-0.26
-0.34
-0.43
-0.47
-0.39
-0.17
0.12
0.42
0.65
0.77
0.79
0.75
0.66
0.57
0.48
0.43
0.44
0.49
0.58
0.63
0.61
0.46
0.22
-0.04
-0.23
-0.28
-0.17
0.03
0.24
0.38
0.40
0.31
0.14
-0.05
-0.22
-0.34
-0.39
-0.37
-0.27
-0.13
0.03
0.14
0.16
0.07
-0.13
-0.40
-0.68
-0.86
-0.86
-0.67
-0.31
0.09
0.38
0.44
0.27
-0.06
-0.41
-0.63
-0.65
-0.47
-0.14
0.22
0.54
0.75
0.82
0.78
0.62
0.44
0.28
0.22
0.29
0.50
0.82
1.21
1.62
1.94
2.11
2.04
1.69
1.11
0.35
-0.48
-1.26
-1.87
-2.24
-2.32
-2.11
-1.65
-1.02
-0.32
0.35
0.92
1.36
1.67
1.85
1.86
1.62
1.08
0.21
-0.88
-2.04
-3.02
-3.61
-3.70
-3.28
-2.49
-1.53
-0.62
0.01
0.23
-0.00
-0.59
-1.35
-2.03
-2.39
-2.30
-1.73
-0.81
0.28
1.31
2.10
2.52
2.52
2.14
1.48
0.70
-0.05
-0.59
-0.81
-0.65
-0.14
0.61
1.39
2.01
2.27
2.12
1.61
0.89
0.17
-0.41
-0.76
-0.89
-0.85
-0.68
-0.44
-0.14
0.17
0.45
0.66
0.79
0.85
0.90
0.99
1.12
1.26
1.33
1.27
1.07
0.78
0.51
0.32
0.25
0.23
0.18
0.05
-0.14
-0.32
-0.42
-0.45
-0.45
-0.51
-0.65
-0.88
-1.12
-1.33
-1.49
-1.63
-1.73
-1.78
-1.72
-1.52
-1.20
-0.86
-0.61
-0.50
-0.48
-0.42
-0.22
0.13
0.54
0.82
0.84
0.52
-0.06
-0.76
-1.42
-1.90
-2.11
-1.99
-1.53
-0.78
0.17
1.18
2.09
2.78
3.20
3.37
3.37
3.21
2.90
2.38
1.63
0.70
-0.30
-1.20
-1.88
-2.28
-2.44
-2.41
-2.27
-2.01
-1.62
-1.07
-0.42
0.23
0.71
0.93
0.91
0.72
0.55
0.52
0.70
1.07
1.57
2.10
2.54
2.80
2.80
2.57
2.19
1.84
1.71
1.88
2.26
2.59
2.57
2.01
0.92
-0.45
-1.76
-2.67
-3.04
-2.87
-2.31
-1.57
-0.83
-0.16
0.38
0.78
1.00
0.98
0.67
0.08
-0.70
-1.46
-2.01
-2.21
-2.02
-1.59
-1.09
-0.67
-0.40
-0.23
-0.13
-0.06
-0.07
-0.22
-0.50
-0.87
-1.20
-1.38
-1.33
-1.07
-0.65
-0.17
0.29
0.65
0.85
0.87
0.73
0.49
0.22
0.03
-0.05
0.02
0.19
0.44
0.72
0.97
1.15
1.21
1.14
0.93
0.61
0.23
-0.19
-0.59
-0.92
-1.14
-1.24
-1.23
-1.18
-1.15
-1.21
-1.34
-1.50
-1.59
-1.59
-1.54
-1.52
-1.68
-2.10
-2.77
-3.57
-4.27
-4.60
-4.32
-3.36
-1.77
0.21
2.27
4.12
5.60
6.67
7.40
7.91
8.31
8.65
8.93
9.08
8.95
8.37
7.17
5.31
2.91
0.23
-2.35
-4.52
-6.06
-6.91
-7.17
-6.96
-6.44
-5.75
-5.02
-4.39
-3.98
-3.88
-4.08
-4.50
-4.98
-5.36
-5.48
-5.21
-4.47
-3.25
-1.62
0.24
2.12
3.79
5.11
6.01
6.48
6.52
6.09
5.17
3.83
2.26
0.77
-0.31
-0.77
-0.61
-0.03
0.64
1.16
1.36
1.27
0.99
0.60
0.12
-0.45
-1.08
-1.71
-2.22
-2.51
-2.54
-2.34
-2.02
-1.67
-1.38
-1.18
-1.10
-1.14
-1.32
-1.58
-1.86
-2.08
-2.19
-2.22
-2.29
-2.48
-2.82
-3.20
-3.39
-3.14
-2.32
-0.99
0.56
1.92
2.78
3.04
2.84
2.51
2.32
2.45
2.83
3.32
3.78
4.13
4.39
4.60
4.74
4.70
4.39
3.75
2.92
2.14
1.69
1.79
2.49
3.65
4.99
6.19
6.95
7.10
6.57
5.35
3.52
1.21
-1.39
-4.01
-6.33
-8.08
-9.12
-9.47
-9.27
-8.75
-8.07
-7.27
-6.35
-5.25
-3.96
-2.57
-1.25
-0.17
0.50
0.65
0.30
-0.45
-1.41
-2.34
-2.99
-3.22
-3.01
-2.46
-1.70
-0.87
-0.06
0.65
1.20
1.51
1.54
1.27
0.75
0.08
-0.58
-1.07
-1.26
-1.06
-0.48
0.42
1.47
2.48
3.24
3.64
3.65
3.33
2.83
2.30
1.89
1.69
1.78
2.16
2.81
3.66
4.60
5.46
6.06
6.20
5.72
4.55
2.78
0.65
-1.48
-3.24
-4.39
-4.86
-4.81
-4.52
-4.29
-4.30
-4.57
-4.96
-5.26
-5.27
-4.88
-4.08
-2.96
-1.70
-0.50
0.41
0.86
0.78
0.27
-0.43
-1.00
-1.19
-0.93
-0.35
0.26
0.60
0.49
-0.04
-0.77
-1.42
-1.76
-1.72
-1.33
-0.77
-0.17
0.33
0.66
0.78
0.67
0.38
-0.01
-0.35
-0.53
-0.50
-0.30
-0.07
0.06
-0.01
-0.29
-0.67
-1.00
-1.11
-0.83
-0.11
1.02
2.39
3.74
4.79
5.33
5.28
4.75
3.97
3.23
2.74
2.60
2.75
3.02
3.28
3.43
3.53
3.67
3.91
4.26
4.61
4.86
4.92
4.78
4.50
4.07
3.49
2.70
1.71
0.61
-0.48
-1.44
-2.27
-3.07
-3.94
-4.95
-5.96
-6.76
-7.12
-6.91
-6.19
-5.14
-3.97
-2.81
-1.69
-0.59
0.52
1.55
2.36
2.83
2.89
2.60
2.16
1.76
1.53
1.47
1.43
1.22
0.74
0.01
-0.79
-1.43
-1.73
-1.65
-1.30
-0.88
-0.55
-0.43
-0.52
-0.74
-0.97
-1.16
-1.26
-1.27
-1.22
-1.09
-0.90
-0.65
-0.40
-0.21
-0.15
-0.27
-0.53
-0.87
-1.20
-1.46
-1.62
-1.69
-1.71
-1.70
-1.68
-1.67
-1.68
-1.70
-1.73
-1.73
-1.70
-1.66
-1.68
-1.81
-2.07
-2.40
-2.67
-2.74
-2.51
-1.93
-1.06
-0.02
1.01
1.86
2.35
2.40
2.01
1.32
0.52
-0.18
-0.68
-0.94
-1.03
-1.04
-1.02
-0.98
-0.88
-0.71
-0.45
-0.11
0.30
0.77
1.30
1.88
2.45
2.94
3.25
3.29
3.03
2.52
1.88
1.29
0.88
0.71
0.77
0.99
1.28
1.61
1.98
2.35
2.62
2.69
2.45
1.87
1.07
0.22
-0.53
-1.09
-1.48
-1.77
-2.04
-2.33
-2.60
-2.85
-3.05
-3.22
-3.37
-3.49
-3.50
-3.34
-2.97
-2.43
-1.84
-1.30
-0.85
-0.41
0.12
0.83
1.64
2.38
2.82
2.85
2.50
1.98
1.48
1.09
0.78
0.43
-0.07
-0.68
-1.24
-1.55
-1.44
-0.91
-0.09
0.79
1.51
1.89
1.90
1.63
1.20
0.73
0.31
-0.10
-0.54
-1.02
-1.52
-1.90
-2.03
-1.86
-1.41
-0.81
-0.25
0.15
0.32
0.28
0.11
-0.15
-0.46
-0.78
-1.07
-1.28
-1.36
-1.35
-1.29
-1.28
-1.36
-1.46
-1.51
-1.40
-1.06
-0.52
0.19
1.01
1.91
2.87
3.78
4.54
5.02
5.18
5.10
4.89
4.64
4.36
3.95
3.29
2.33
1.18
0.02
-0.93
-1.57
-1.93
-2.09
-2.12
-1.98
-1.61
-0.97
-0.18
0.51
0.81
0.57
-0.18
-1.17
-2.10
-2.72
-2.95
-2.87
-2.64
-2.37
-2.09
-1.81
-1.52
-1.23
-1.01
-0.87
-0.79
-0.74
-0.69
-0.65
-0.70
-0.92
-1.29
-1.68
-1.87
-1.66
-1.01
-0.06
0.91
1.59
1.83
1.63
1.21
0.78
0.54
0.53
0.72
1.02
1.40
1.83
2.28
2.68
2.91
2.83
2.40
1.67
0.84
0.17
-0.10
0.09
0.66
1.32
1.77
1.74
1.16
0.14
-1.03
-2.02
-2.52
-2.39
-1.64
-0.49
0.76
1.81
2.43
2.58
2.37
2.00
1.73
1.73
2.08
2.73
3.53
4.24
4.64
4.52
3.74
2.31
0.40
-1.69
-3.57
-4.96
-5.74
-5.98
-5.89
-5.71
-5.58
-5.47
-5.27
-4.84
-4.15
-3.28
-2.39
-1.64
-1.11
-0.82
-0.75
-0.81
-0.97
-1.12
-1.19
-1.06
-0.68
-0.02
0.86
1.82
2.67
3.22
3.36
3.08
2.52
1.86
1.28
0.90
0.75
0.78
0.97
1.25
1.61
2.02
2.39
2.64
2.72
2.62
2.43
2.25
2.13
2.03
1.82
1.35
0.59
-0.40
-1.42
-2.22
-2.61
-2.51
-1.98
-1.17
-0.27
0.55
1.12
1.38
1.27
0.80
0.03
-0.88
-1.74
-2.35
-2.59
-2.45
-2.05
-1.56
-1.15
-0.94
-0.92
-1.05
-1.24
-1.41
-1.47
-1.38
-1.11
-0.69
-0.22
0.22
0.50
0.57
0.47
0.27
0.09
-0.01
-0.00
0.04
0.06
-0.00
-0.09
-0.12
0.05
0.47
1.14
1.93
2.65
3.15
3.36
3.30
3.01
2.56
1.99
1.40
0.89
0.66
0.86
1.53
2.57
3.73
4.72
5.30
5.33
4.80
3.76
2.34
0.68
-1.01
-2.51
-3.64
-4.32
-4.59
-4.60
-4.53
-4.48
-4.39
-4.12
-3.52
-2.52
-1.27
0.00
0.96
1.35
1.11
0.34
-0.72
-1.77
-2.57
-3.02
-3.10
-2.91
-2.56
-2.20
-1.92
-1.81
-1.87
-2.10
-2.43
-2.74
-2.92
-2.83
-2.40
-1.61
-0.55
0.60
1.61
2.27
2.52
2.42
2.16
1.94
1.88
1.97
2.13
2.28
2.35
2.35
2.24
1.95
1.34
0.34
-1.06
-2.66
-4.18
-5.31
-5.81
-5.60
-4.77
-3.47
-1.91
-0.28
1.23
2.50
3.39
3.82
3.77
3.24
2.37
1.32
0.27
-0.60
-1.22
-1.57
-1.71
-1.72
-1.63
-1.45
-1.13
-0.62
0.05
0.78
1.41
1.82
1.92
1.74
1.42
1.13
1.00
1.10
1.40
1.76
2.05
2.17
2.11
1.91
1.66
1.46
1.38
1.45
1.65
1.94
2.29
2.62
2.86
2.91
2.71
2.25
1.61
0.91
0.29
-0.16
-0.42
-0.54
-0.60
-0.68
-0.81
-0.98
-1.18
-1.38
-1.57
-1.70
-1.73
-1.58
-1.23
-0.71
-0.18
0.16
0.13
-0.30
-1.03
-1.81
-2.39
-2.64
-2.56
-2.26
-1.92
-1.65
-1.50
-1.45
-1.43
-1.42
-1.38
-1.28
-1.07
-0.74
-0.32
0.15
0.60
0.99
1.28
1.47
1.56
1.58
1.53
1.48
1.47
1.50
1.56
1.55
1.41
1.12
0.72
0.29
-0.12
-0.50
-0.89
-1.30
-1.67
-1.84
-1.69
-1.19
-0.47
0.26
0.81
1.14
1.31
1.50
1.79
2.16
2.46
2.51
2.21
1.59
0.81
0.09
-0.45
-0.82
-1.13
-1.51
-2.01
-2.53
-2.90
-2.93
-2.54
-1.84
-1.04
-0.40
-0.09
-0.17
-0.51
-0.95
-1.32
-1.56
-1.65
-1.65
-1.60
-1.51
-1.32
-0.99
-0.46
0.24
1.05
1.82
2.42
2.75
2.78
2.52
2.04
1.39
0.61
-0.23
-1.06
-1.73
-2.09
-2.05
-1.62
-0.94
-0.23
0.34
0.68
0.82
0.80
0.62
0.22
-0.42
-1.25
-2.04
-2.45
-2.17
-1.09
0.66
2.71
4.62
6.01
6.65
6.54
5.77
4.56
3.15
1.80
0.76
0.12
-0.14
-0.18
-0.18
-0.26
-0.43
-0.60
-0.71
-0.73
-0.72
-0.74
-0.80
-0.83
-0.76
-0.54
-0.25
0.03
0.21
0.27
0.24
0.16
0.07
-0.02
-0.09
-0.09
-0.02
0.10
0.22
0.27
0.22
0.09
-0.03
-0.11
-0.14
-0.16
-0.21
-0.24
-0.21
-0.06
0.20
0.48
0.69
0.77
0.72
0.63
0.55
0.50
0.46
0.42
0.39
0.43
0.56
0.76
0.96
1.00
0.82
0.43
-0.08
-0.55
-0.91
-1.17
-1.46
-1.87
-2.43
-3.02
-3.44
-3.49
-3.09
-2.33
-1.40
-0.55
0.10
0.50
0.72
0.85
0.96
1.07
1.21
1.35
1.47
1.53
1.49
1.38
1.25
1.17
1.17
1.22
1.26
1.21
1.05
0.80
0.50
0.18
-0.17
-0.57
-0.98
-1.33
-1.51
-1.47
-1.25
-0.96
-0.74
-0.69
-0.80
-0.98
-1.10
-1.05
-0.82
-0.47
-0.15
0.02
-0.06
-0.37
-0.82
-1.22
-1.45
-1.47
-1.32
-1.10
-0.87
-0.66
-0.46
-0.21
0.06
0.29
0.37
0.22
-0.15
-0.63
-1.02
-1.17
-0.99
-0.55
0.00
0.48
0.74
0.74
0.52
0.20
-0.14
-0.42
-0.64
-0.79
-0.84
-0.75
-0.52
-0.19
0.16
0.44
0.61
0.68
0.71
0.74
0.79
0.82
0.78
0.62
0.37
0.12
-0.04
-0.08
0.01
0.15
0.26
0.28
0.23
0.15
0.12
0.18
0.33
0.53
0.70
0.75
0.63
0.33
-0.10
-0.57
-0.95
-1.15
-1.12
-0.87
-0.51
-0.14
0.13
0.24
0.20
0.05
-0.13
-0.27
-0.34
-0.34
-0.26
-0.18
-0.14
-0.16
-0.24
-0.33
-0.37
-0.32
-0.17
0.05
0.28
0.46
0.55
0.54
0.46
0.35
0.24
0.15
0.11
0.09
0.11
0.13
0.14
0.12
0.08
0.05
0.07
0.14
0.24
0.35
0.41
0.41
0.33
0.18
-0.01
-0.22
-0.38
-0.43
-0.35
-0.16
0.06
0.23
0.28
0.24
0.15
0.09
0.04
-0.05
-0.26
-0.60
-1.00
-1.33
-1.48
-1.40
-1.11
-0.75
-0.43
-0.24
-0.20
-0.26
-0.34
-0.35
-0.26
-0.05
0.23
0.53
0.78
0.95
1.02
0.99
0.86
0.61
0.27
-0.09
-0.36
-0.45
-0.32
-0.04
0.28
0.49
0.51
0.35
0.13
-0.03
-0.05
0.06
0.24
0.39
0.44
0.38
0.23
0.07
-0.06
-0.09
-0.00
0.21
0.51
0.79
0.95
0.88
0.58
0.13
-0.32
-0.63
-0.72
-0.61
-0.37
-0.09
0.17
0.37
0.49
0.52
0.47
0.36
0.28
0.33
0.55
0.89
1.23
1.41
1.31
0.96
0.46
-0.00
-0.31
-0.45
-0.46
-0.40
-0.30
-0.15
0.06
0.31
0.51
0.60
0.53
0.35
0.15
0.04
0.08
0.28
0.58
0.90
1.15
1.26
1.20
0.97
0.64
0.29
0.02
-0.08
0.00
0.20
0.37
0.32
-0.10
-0.96
-2.20
-3.66
-5.11
-6.31
-7.05
-7.18
-6.63
-5.41
-3.67
-1.69
0.21
1.71
2.66
3.05
2.99
2.63
2.07
1.35
0.52
-0.32
-0.96
-1.20
-0.93
-0.23
0.64
1.37
1.71
1.60
1.13
0.54
0.03
-0.23
-0.25
-0.09
0.12
0.26
0.30
0.25
0.18
0.12
0.11
0.13
0.16
0.21
0.29
0.41
0.55
0.65
0.64
0.54
0.40
0.38
0.60
1.05
1.62
2.11
2.37
2.36
2.17
1.98
1.87
1.83
1.72
1.44
0.94
0.32
-0.25
-0.64
-0.79
-0.79
-0.72
-0.65
-0.57
-0.44
-0.21
0.10
0.37
0.50
0.41
0.14
-0.23
-0.57
-0.80
-0.90
-0.91
-0.84
-0.72
-0.53
-0.24
0.12
0.51
0.86
1.13
1.31
1.44
1.55
1.69
1.84
2.01
2.14
2.21
2.17
2.05
1.93
1.95
2.24
2.80
3.47
3.96
3.98
3.41
2.37
1.18
0.17
-0.48
-0.83
-1.06
-1.40
-1.89
-2.42
-2.82
-2.92
-2.71
-2.34
-1.98
-1.74
-1.63
-1.60
-1.55
-1.49
-1.44
-1.49
-1.64
-1.88
-2.11
-2.26
-2.29
-2.23
-2.12
-1.98
-1.78
-1.50
-1.16
-0.83
-0.58
-0.48
-0.51
-0.62
-0.71
-0.74
-0.69
-0.59
-0.48
-0.39
-0.29
-0.18
-0.05
0.08
0.20
0.29
0.35
0.36
0.31
0.23
0.17
0.17
0.28
0.47
0.69
0.87
0.92
0.81
0.56
0.21
-0.15
-0.44
-0.58
-0.54
-0.31
0.02
0.35
0.53
0.47
0.20
-0.19
-0.56
-0.78
-0.81
-0.67
-0.43
-0.19
-0.02
0.04
-0.03
-0.17
-0.30
-0.34
-0.25
-0.06
0.12
0.20
0.14
0.01
-0.11
-0.12
-0.01
0.18
0.34
0.43
0.43
0.39
0.37
0.41
0.51
0.66
0.84
0.98
1.05
1.00
0.85
0.69
0.60
0.64
0.75
0.80
0.65
0.23
-0.42
-1.18
-1.89
-2.44
-2.81
-3.04
-3.22
-3.45
-3.78
-4.21
-4.67
-5.08
-5.33
-5.38
-5.22
-4.96
-4.69
-4.47
-4.27
-4.01
-3.55
-2.85
-1.92
-0.85
0.17
1.02
1.61
1.96
2.16
2.34
2.56
2.80
2.98
3.01
2.85
2.56
2.25
2.03
1.94
1.96
2.02
2.05
2.02
1.93
1.82
1.74
1.71
1.72
1.79
1.90
2.02
2.12
2.15
2.08
1.93
1.73
1.53
1.38
1.30
1.30
1.38
1.52
1.72
1.92
2.09
2.19
2.20
2.13
2.00
1.83
1.61
1.34
1.03
0.71
0.42
0.16
-0.09
-0.37
-0.71
-1.07
-1.34
-1.44
-1.31
-1.03
-0.77
-0.68
-0.84
-1.18
-1.56
-1.76
-1.72
-1.47
-1.14
-0.90
-0.82
-0.89
-0.99
-1.02
-0.91
-0.71
-0.53
-0.48
-0.60
-0.84
-1.11
-1.27
-1.26
-1.06
-0.74
-0.34
0.13
0.68
1.26
1.72
1.87
1.52
0.67
-0.48
-1.54
-2.15
-2.07
-1.35
-0.23
0.98
2.03
2.86
3.48
3.95
4.26
4.32
4.00
3.31
2.35
1.35
0.53
0.01
-0.23
-0.31
-0.38
-0.53
-0.74
-0.94
-1.04
-1.01
-0.88
-0.72
-0.58
-0.51
-0.50
-0.52
-0.54
-0.52
-0.44
-0.30
-0.16
-0.07
-0.09
-0.21
-0.35
-0.41
-0.33
-0.10
0.18
0.37
0.39
0.22
-0.03
-0.23
-0.26
-0.10
0.19
0.50
0.73
0.85
0.89
0.91
0.99
1.16
1.39
1.63
1.82
1.92
1.94
1.91
1.86
1.76
1.53
1.08
0.36
-0.60
-1.69
-2.74
-3.58
-4.12
-4.33
-4.28
-4.04
-3.74
-3.43
-3.20
-3.10
-3.14
-3.34
-3.60
-3.83
-3.88
-3.68
-3.20
-2.53
-1.79
-1.11
-0.56
-0.16
0.16
0.43
0.69
0.94
1.18
1.39
1.57
1.75
1.91
2.05
2.14
2.14
2.07
1.96
1.85
1.78
1.75
1.73
1.68
1.56
1.38
1.15
0.91
0.69
0.51
0.41
0.39
0.44
0.49
0.48
0.33
0.03
-0.37
-0.78
-1.13
-1.38
-1.50
-1.53
-1.48
-1.36
-1.23
-1.16
-1.20
-1.34
-1.50
-1.53
-1.32
-0.82
-0.12
0.67
1.43
2.08
2.56
2.84
2.89
2.67
2.24
1.69
1.16
0.75
0.50
0.40
0.44
0.64
1.06
1.71
2.49
3.13
3.29
2.70
1.29
-0.76
-3.08
-5.26
-7.04
-8.31
-9.11
-9.51
-9.51
-9.02
-7.92
-6.17
-3.90
-1.35
1.14
3.32
5.05
6.35
7.29
7.95
8.32
8.33
7.94
7.17
6.18
5.21
4.48
4.10
4.01
4.04
3.96
3.60
2.89
1.90
0.83
-0.12
-0.78
-1.09
-1.11
-0.97
-0.83
-0.81
-0.94
-1.13
-1.24
-1.15
-0.86
-0.46
-0.17
-0.16
-0.51
-1.12
-1.75
-2.15
-2.14
-1.73
-1.06
-0.39
0.11
0.32
0.27
0.03
-0.30
-0.64
-0.96
-1.21
-1.38
-1.49
-1.59
-1.72
-1.86
-1.98
-2.01
-1.89
-1.63
-1.32
-1.00
-0.72
-0.47
-0.21
0.08
0.34
0.51
0.55
0.46
0.31
0.21
0.22
0.38
0.65
0.97
1.27
1.52
1.67
1.72
1.70
1.61
1.47
1.24
0.91
0.44
-0.14
-0.81
-1.46
-1.97
-2.23
-2.21
-1.98
-1.68
-1.52
-1.70
-2.31
-3.31
-4.56
-5.84
-6.94
-7.75
-8.25
-8.51
-8.65
-8.80
-9.08
-9.57
-10.30
-11.20
-12.10
-12.77
-12.98
-12.60
-11.65
-10.26
-8.67
-7.10
-5.69
-4.53
-3.60
-2.92
-2.50
-2.38
-2.50
-2.70
-2.72
-2.25
-1.08
0.85
3.38
6.23
9.05
11.52
13.44
14.71
15.31
15.27
14.66
13.64
12.39
11.09
9.88
8.80
7.86
7.01
6.26
5.67
5.31
5.25
5.48
5.88
6.29
6.51
6.45
6.06
5.43
4.67
3.88
3.13
2.45
1.84
1.34
0.99
0.79
0.71
0.66
0.55
0.32
-0.01
-0.37
-0.70
-0.94
-1.07
-1.09
-1.01
-0.85
-0.65
-0.47
-0.39
-0.45
-0.62
-0.83
-0.97
-0.97
-0.81
-0.54
-0.25
-0.02
0.10
0.08
-0.07
-0.27
-0.45
-0.53
-0.48
-0.32
-0.13
-0.03
-0.07
-0.24
-0.44
-0.54
-0.49
-0.28
-0.02
0.17
0.18
-0.01
-0.31
-0.61
-0.72
-0.56
-0.14
0.38
0.75
0.76
0.34
-0.39
-1.17
-1.70
-1.80
-1.48
-0.92
-0.34
0.05
0.20
0.16
0.02
-0.13
-0.23
-0.30
-0.34
-0.34
-0.29
-0.20
-0.11
-0.09
-0.20
-0.48
-0.87
-1.27
-1.58
-1.71
-1.63
-1.35
-0.93
-0.45
-0.03
0.22
0.20
-0.09
-0.57
-1.07
-1.39
-1.43
-1.16
-0.70
-0.20
0.18
0.39
0.41
0.32
0.21
0.13
0.09
0.10
0.14
0.22
0.36
0.56
0.82
1.11
1.36
1.55
1.67
1.74
1.78
1.83
1.85
1.82
1.65
1.34
0.92
0.49
0.19
0.11
0.24
0.48
0.65
0.62
0.37
0.00
-0.34
-0.52
-0.51
-0.34
-0.11
0.09
0.27
0.46
0.70
0.95
1.15
1.22
1.14
0.96
0.82
0.83
1.01
1.32
1.62
1.82
1.81
1.61
1.29
0.94
0.69
0.66
0.89
1.40
2.12
2.93
3.72
4.43
5.03
5.51
5.85
5.93
5.60
4.75
3.38
1.66
-0.12
-1.62
-2.56
-2.82
-2.47
-1.72
-0.88
-0.26
-0.07
-0.44
-1.37
-2.77
-4.48
-6.29
-8.01
-9.49
-10.76
-11.98
-13.38
-15.05
-16.85
-18.33
-18.91
-18.12
-15.85
-12.41
-8.34
-4.19
-0.30
3.19
6.24
8.71
10.36
10.95
10.45
9.11
7.40
5.85
4.80
4.31
4.20
4.20
4.07
3.69
3.11
2.44
1.82
1.36
1.09
0.97
0.90
0.79
0.57
0.23
-0.15
-0.47
-0.62
-0.53
-0.21
0.26
0.76
1.14
1.35
1.37
1.26
1.09
0.89
0.68
0.46
0.26
0.16
0.22
0.42
0.67
0.81
0.75
0.50
0.16
-0.08
-0.09
0.14
0.53
0.92
1.18
1.26
1.15
0.94
0.68
0.43
0.22
0.10
0.12
0.34
0.77
1.32
1.84
2.13
2.08
1.71
1.16
0.64
0.31
0.20
0.23
0.28
0.28
0.23
0.19
0.18
0.18
0.14
0.00
-0.22
-0.44
-0.59
-0.64
-0.63
-0.64
-0.74
-0.89
-1.02
-1.04
-0.90
-0.65
-0.40
-0.22
-0.14
-0.14
-0.17
-0.20
-0.25
-0.33
-0.48
-0.67
-0.86
-0.98
-0.98
-0.89
-0.73
-0.55
-0.36
-0.20
-0.06
0.06
0.19
0.31
0.40
0.44
0.42
0.35
0.24
0.13
0.00
-0.13
-0.29
-0.47
-0.66
-0.80
-0.87
-0.84
-0.73
-0.56
-0.35
-0.12
0.10
0.25
0.29
0.18
-0.01
-0.19
-0.25
-0.13
0.12
0.39
0.55
0.55
0.41
0.22
0.09
0.10
0.25
0.48
0.71
0.85
0.87
0.77
0.57
0.31
0.02
-0.29
-0.59
-0.83
-0.97
-0.97
-0.80
-0.51
-0.16
0.14
0.28
0.22
-0.01
-0.32
-0.61
-0.79
-0.82
-0.72
-0.53
-0.26
0.03
0.33
0.60
0.79
0.89
0.87
0.74
0.54
0.30
0.10
-0.03
-0.05
0.02
0.13
0.20
0.14
-0.04
-0.28
-0.46
-0.48
-0.33
-0.10
0.07
0.10
-0.02
-0.20
-0.31
-0.28
-0.14
0.01
0.08
0.04
-0.04
-0.08
0.02
0.24
0.46
0.57
0.45
0.13
-0.30
-0.68
-0.90
-0.91
-0.77
-0.58
-0.43
-0.34
-0.27
-0.17
-0.02
0.15
0.24
0.22
0.10
-0.04
-0.11
-0.06
0.09
0.26
0.40
0.51
0.61
0.70
0.75
0.67
0.41
0.01
-0.42
-0.68
-0.64
-0.28
0.28
0.85
1.24
1.33
1.10
0.60
-0.03
-0.63
-1.02
-1.12
-0.91
-0.49
-0.03
0.33
0.47
0.42
0.25
0.09
0.02
0.05
0.14
0.20
0.20
0.14
0.07
0.02
0.03
0.08
0.12
0.16
0.20
0.26
0.33
0.40
0.38
0.24
-0.03
-0.35
-0.61
-0.71
-0.64
-0.46
-0.26
-0.13
-0.07
-0.05
-0.01
0.08
0.20
0.32
0.40
0.42
0.39
0.33
0.28
0.24
0.23
0.23
0.20
0.14
0.08
0.03
0.02
0.03
0.02
-0.03
-0.15
-0.31
-0.47
-0.55
-0.55
-0.47
-0.36
-0.26
-0.20
-0.19
-0.20
-0.19
-0.12
0.02
0.21
0.39
0.49
0.47
0.34
0.16
0.03
-0.03
-0.01
0.04
0.06
0.02
-0.06
-0.17
-0.25
-0.29
-0.30
-0.28
-0.24
-0.23
-0.28
-0.41
-0.63
-0.87
-1.04
-1.06
-0.88
-0.57
-0.23
0.03
0.17
0.22
0.24
0.30
0.37
0.41
0.37
0.24
0.10
0.00
-0.02
0.02
0.09
0.17
0.26
0.36
0.44
0.46
0.38
0.23
0.06
-0.03
0.02
0.18
0.37
0.52
0.55
0.45
0.26
0.03
-0.18
-0.33
-0.40
-0.40
-0.39
-0.38
-0.40
-0.43
-0.42
-0.35
-0.22
-0.05
0.09
0.16
0.16
0.11
0.02
-0.08
-0.17
-0.26
-0.30
-0.27
-0.19
-0.08
0.02
0.08
0.10
0.10
0.09
0.10
0.11
0.12
0.10
0.07
0.03
-0.01
-0.05
-0.09
-0.13
-0.18
-0.21
-0.22
-0.20
-0.11
0.04
0.25
0.46
0.65
0.75
0.77
0.73
0.66
0.58
0.51
0.43
0.33
0.22
0.14
0.10
0.11
0.14
0.16
0.14
0.08
-0.01
-0.09
-0.15
-0.20
-0.24
-0.27
-0.32
-0.36
-0.34
-0.23
-0.02
0.23
0.44
0.53
0.46
0.27
0.05
-0.09
-0.10
0.00
0.13
0.21
0.19
0.08
-0.08
-0.24
-0.36
-0.41
-0.40
-0.35
-0.29
-0.23
-0.16
-0.05
0.09
0.26
0.43
0.54
0.56
0.54
0.49
0.44
0.37
0.23
0.01
-0.26
-0.48
-0.54
-0.39
-0.07
0.28
0.54
0.58
0.37
0.02
-0.36
-0.63
-0.74
-0.71
-0.62
-0.54
-0.52
-0.51
-0.40
-0.15
0.23
0.63
0.90
0.92
0.70
0.33
-0.01
-0.21
-0.23
-0.14
-0.04
-0.03
-0.13
-0.31
-0.51
-0.68
-0.77
-0.79
-0.71
-0.53
-0.29
-0.01
0.20
0.29
0.21
0.01
-0.21
-0.35
-0.34
-0.17
0.09
0.38
0.62
0.78
0.83
0.73
0.48
0.14
-0.24
-0.57
-0.78
-0.84
-0.76
-0.58
-0.32
-0.04
0.22
0.39
0.41
0.27
0.02
-0.25
-0.41
-0.39
-0.22
0.03
0.25
0.40
0.46
0.46
0.40
0.27
0.08
-0.18
-0.45
-0.65
-0.71
-0.61
-0.37
-0.09
0.16
0.28
0.27
0.18
0.08
0.01
0.02
0.09
0.18
0.22
0.20
0.12
0.02
-0.03
0.01
0.15
0.35
0.56
0.71
0.74
0.63
0.42
0.16
-0.09
-0.28
-0.41
-0.48
-0.50
-0.47
-0.39
-0.25
-0.09
0.07
0.16
0.15
0.01
-0.21
-0.48
-0.72
-0.91
-1.02
-1.07
-1.06
-1.00
-0.90
-0.76
-0.62
-0.51
-0.46
-0.46
-0.48
-0.49
-0.48
-0.48
-0.57
-0.75
-0.99
-1.20
-1.26
-1.10
-0.72
-0.17
0.46
1.09
1.68
2.19
2.58
2.77
2.74
2.50
2.13
1.73
1.42
1.23
1.13
1.07
1.01
0.94
0.88
0.84
0.79
0.70
0.55
0.36
0.22
0.19
0.31
0.51
0.65
0.62
0.35
-0.11
-0.66
-1.13
-1.41
-1.46
-1.29
-0.97
-0.58
-0.23
0.04
0.18
0.23
0.21
0.16
0.08
-0.01
-0.11
-0.19
-0.23
-0.26
-0.28
-0.32
-0.40
-0.49
-0.55
-0.54
-0.44
-0.31
-0.19
-0.14
-0.17
-0.25
-0.35
-0.40
-0.40
-0.35
-0.30
-0.29
-0.36
-0.50
-0.66
-0.72
-0.59
-0.22
0.33
0.90
1.33
1.52
1.45
1.22
0.94
0.68
0.48
0.31
0.16
0.06
0.02
0.08
0.21
0.36
0.47
0.46
0.35
0.12
-0.19
-0.51
-0.78
-0.93
-0.93
-0.81
-0.67
-0.56
-0.51
-0.49
-0.45
-0.37
-0.27
-0.22
-0.28
-0.43
-0.59
-0.66
-0.59
-0.40
-0.18
-0.00
0.09
0.13
0.13
0.12
0.10
0.05
-0.01
-0.09
-0.14
-0.15
-0.10
0.03
0.27
0.62
0.99
1.28
1.33
1.12
0.72
0.31
0.07
0.08
0.24
0.39
0.36
0.12
-0.23
-0.50
-0.58
-0.44
-0.20
-0.00
0.06
-0.00
-0.12
-0.20
-0.18
-0.08
0.07
0.20
0.29
0.35
0.39
0.41
0.42
0.37
0.26
0.10
-0.09
-0.26
-0.37
-0.43
-0.44
-0.44
-0.43
-0.42
-0.39
-0.33
-0.23
-0.09
0.04
0.11
0.05
-0.15
-0.48
-0.83
-1.11
-1.23
-1.13
-0.82
-0.37
0.14
0.57
0.83
0.86
0.66
0.36
0.12
0.08
0.23
0.46
0.58
0.46
0.09
-0.33
-0.59
-0.54
-0.20
0.29
0.70
0.86
0.74
0.43
0.07
-0.21
-0.38
-0.42
-0.38
-0.27
-0.14
0.02
0.16
0.28
0.31
0.24
0.05
-0.23
-0.51
-0.73
-0.78
-0.67
-0.42
-0.16
-0.04
-0.13
-0.47
-0.96
-1.44
-1.75
-1.78
-1.52
-1.02
-0.39
0.25
0.80
1.18
1.35
1.30
1.08
0.77
0.47
0.27
0.19
0.22
0.30
0.38
0.41
0.36
0.19
-0.08
-0.40
-0.67
-0.76
-0.60
-0.19
0.36
0.89
1.23
1.28
1.07
0.68
0.26
-0.08
-0.28
-0.35
-0.32
-0.24
-0.09
0.10
0.36
0.63
0.83
0.89
0.75
0.42
-0.00
-0.38
-0.58
-0.56
-0.35
-0.11
0.05
0.06
-0.04
-0.17
-0.21
-0.09
0.15
0.45
0.70
0.82
0.81
0.66
0.41
0.12
-0.14
-0.30
-0.29
-0.12
0.17
0.43
0.55
0.46
0.21
-0.12
-0.40
-0.55
-0.57
-0.49
-0.39
-0.28
-0.19
-0.10
-0.03
-0.03
-0.13
-0.33
-0.58
-0.76
-0.76
-0.55
-0.19
0.16
0.35
0.30
0.04
-0.29
-0.56
-0.68
-0.66
-0.56
-0.46
-0.37
-0.29
-0.17
-0.01
0.18
0.32
0.39
0.38
0.32
0.27
0.28
0.36
0.46
0.49
0.39
0.17
-0.13
-0.38
-0.49
-0.39
-0.13
0.22
0.57
0.84
1.00
1.04
0.96
0.77
0.50
0.20
-0.07
-0.25
-0.33
-0.34
-0.32
-0.30
-0.28
-0.27
-0.22
-0.14
-0.02
0.12
0.25
0.33
0.34
0.28
0.21
0.16
0.14
0.14
0.14
0.12
0.10
0.10
0.13
0.14
0.06
-0.15
-0.48
-0.84
-1.10
-1.17
-1.03
-0.75
-0.41
-0.10
0.16
0.36
0.54
0.70
0.83
0.92
0.91
0.80
0.59
0.29
-0.06
-0.41
-0.72
-0.92
-1.00
-0.92
-0.69
-0.39
-0.09
0.12
0.19
0.14
0.04
-0.00
0.05
0.17
0.29
0.34
0.27
0.12
-0.05
-0.18
-0.24
-0.25
-0.26
-0.32
-0.45
-0.63
-0.81
-0.94
-0.99
-0.94
-0.81
-0.61
-0.34
0.00
0.40
0.78
1.09
1.26
1.24
1.06
0.80
0.52
0.30
0.19
0.17
0.25
0.38
0.49
0.54
0.49
0.33
0.10
-0.13
-0.32
-0.42
-0.43
-0.37
-0.29
-0.23
-0.22
-0.26
-0.33
-0.42
-0.51
-0.56
-0.57
-0.51
-0.39
-0.23
-0.08
0.01
-0.01
-0.12
-0.25
-0.29
-0.20
0.02
0.27
0.42
0.43
0.30
0.13
0.03
0.04
0.12
0.17
0.15
0.06
-0.01
0.02
0.16
0.34
0.46
0.47
0.38
0.27
0.22
0.25
0.30
0.30
0.18
-0.05
-0.33
-0.58
-0.71
-0.67
-0.49
-0.22
0.05
0.24
0.29
0.22
0.09
-0.03
-0.07
-0.00
0.16
0.37
0.56
0.67
0.64
0.48
0.22
-0.04
-0.20
-0.21
-0.07
0.14
0.30
0.36
0.31
0.16
-0.02
-0.17
-0.24
-0.22
-0.11
0.07
0.27
0.44
0.55
0.56
0.49
0.36
0.22
0.10
0.01
-0.07
-0.16
-0.29
-0.46
-0.64
-0.78
-0.82
-0.73
-0.51
-0.23
0.02
0.18
0.23
0.22
0.19
0.14
0.08
-0.03
-0.18
-0.34
-0.45
-0.48
-0.44
-0.40
-0.45
-0.60
-0.81
-0.95
-0.87
-0.52
0.05
0.64
1.05
1.14
0.91
0.45
-0.05
-0.46
-0.70
-0.77
-0.72
-0.58
-0.39
-0.16
0.08
0.29
0.43
0.48
0.46
0.42
0.41
0.44
0.51
0.59
0.62
0.56
0.38
0.08
-0.26
-0.52
-0.60
-0.47
-0.17
0.17
0.43
0.52
0.47
0.34
0.24
0.20
0.17
0.08
-0.12
-0.39
-0.63
-0.70
-0.56
-0.28
0.02
0.22
0.28
0.24
0.18
0.17
0.22
0.29
0.34
0.34
0.28
0.20
0.12
0.04
-0.02
-0.08
-0.12
-0.13
-0.12
-0.08
-0.02
0.05
0.13
0.16
0.13
0.04
-0.10
-0.21
-0.25
-0.22
-0.14
-0.10
-0.15
-0.30
-0.50
-0.66
-0.68
-0.51
-0.18
0.25
0.69
1.03
1.20
1.20
1.03
0.75
0.46
0.22
0.07
0.01
-0.03
-0.07
-0.13
-0.19
-0.20
-0.15
-0.08
-0.05
-0.13
-0.31
-0.54
-0.73
-0.81
-0.79
-0.69
-0.58
-0.51
-0.48
-0.47
-0.43
-0.36
-0.24
-0.11
0.01
0.09
0.13
0.13
0.10
0.09
0.09
0.13
0.17
0.16
0.07
-0.12
-0.38
-0.64
-0.83
-0.91
-0.86
-0.74
-0.58
-0.46
-0.41
-0.48
-0.65
-0.86
-1.04
-1.09
-0.95
-0.61
-0.15
0.31
0.64
0.78
0.75
0.66
0.62
0.69
0.84
1.00
1.08
1.05
0.93
0.75
0.56
0.37
0.18
-0.02
-0.20
-0.32
-0.37
-0.36
-0.30
-0.16
0.10
0.49
1.02
1.61
2.15
2.56
2.81
2.97
3.11
3.30
3.55
3.84
4.15
4.46
4.77
5.08
5.38
5.63
5.82
5.92
5.93
5.85
5.70
5.47
5.16
4.69
3.96
2.87
1.40
-0.40
-2.39
-4.37
-6.14
-7.51
-8.32
-8.51
-8.13
-7.36
-6.47
-5.70
-5.18
-4.89
-4.68
-4.40
-4.00
-3.55
-3.19
-3.01
-2.99
-3.04
-3.05
-3.01
-2.94
-2.88
-2.85
-2.80
-2.69
-2.52
-2.32
-2.18
-2.14
-2.17
-2.20
-2.12
-1.91
-1.58
-1.21
-0.88
-0.62
-0.42
-0.22
-0.02
0.18
0.31
0.34
0.27
0.16
0.11
0.19
0.41
0.74
1.06
1.26
1.27
1.08
0.75
0.41
0.18
0.14
0.26
0.45
0.56
0.47
0.15
-0.31
-0.75
-1.02
-1.00
-0.70
-0.20
0.37
0.93
1.48
2.03
2.63
3.21
3.72
4.05
4.19
4.20
4.14
4.07
3.97
3.75
3.36
2.82
2.24
1.74
1.40
1.17
0.96
0.67
0.28
-0.17
-0.59
-0.91
-1.14
-1.29
-1.39
-1.43
-1.39
-1.24
-0.96
-0.57
-0.08
0.41
0.83
1.08
1.11
0.96
0.71
0.51
0.47
0.60
0.84
1.04
1.10
0.94
0.57
0.05
-0.56
-1.19
-1.77
-2.22
-2.51
-2.64
-2.62
-2.46
-2.16
-1.73
-1.22
-0.72
-0.36
-0.22
-0.31
-0.58
-0.90
-1.15
-1.27
-1.24
-1.04
-0.68
-0.18
0.42
0.97
1.36
1.50
1.39
1.16
0.98
0.96
1.12
1.37
1.62
1.78
1.86
1.93
2.03
2.16
2.25
2.18
1.92
1.48
0.95
0.45
0.09
-0.10
-0.16
-0.19
-0.28
-0.47
-0.73
-0.97
-1.10
-1.08
-0.94
-0.76
-0.63
-0.58
-0.59
-0.60
-0.56
-0.48
-0.41
-0.41
-0.52
-0.70
-0.87
-0.96
-0.93
-0.77
-0.51
-0.22
0.03
0.17
0.16
-0.01
-0.26
-0.50
-0.60
-0.52
-0.29
-0.03
0.14
0.10
-0.11
-0.40
-0.61
-0.67
-0.58
-0.41
-0.27
-0.18
-0.10
-0.02
0.04
-0.04
-0.36
-0.93
-1.58
-2.04
-2.06
-1.60
-0.86
-0.16
0.17
0.03
-0.44
-0.94
-1.22
-1.19
-0.93
-0.67
-0.59
-0.80
-1.24
-1.77
-2.25
-2.55
-2.68
-2.67
-2.58
-2.47
-2.36
-2.22
-2.05
-1.85
-1.65
-1.48
-1.35
-1.23
-1.07
-0.78
-0.31
0.33
1.05
1.70
2.13
2.26
2.16
2.06
2.17
2.65
3.43
4.25
4.84
5.01
4.79
4.39
4.05
3.92
3.96
4.03
3.99
3.81
3.60
3.47
3.44
3.41
3.19
2.66
1.84
0.92
0.14
-0.32
-0.44
-0.37
-0.31
-0.37
-0.54
-0.72
-0.80
-0.75
-0.60
-0.44
-0.31
-0.19
-0.06
0.09
0.22
0.27
0.26
0.26
0.34
0.55
0.84
1.09
1.19
1.05
0.69
0.20
-0.31
-0.71
-0.97
-1.11
-1.19
-1.28
-1.39
-1.49
-1.51
-1.41
-1.19
-0.91
-0.70
-0.63
-0.71
-0.84
-0.93
-0.89
-0.72
-0.53
-0.42
-0.46
-0.61
-0.79
-0.92
-0.97
-0.97
-0.99
-1.05
-1.15
-1.24
-1.25
-1.19
-1.08
-0.97
-0.92
-0.92
-0.94
-0.94
-0.90
-0.85
-0.87
-1.05
-1.39
-1.81
-2.15
-2.24
-1.99
-1.47
-0.85
-0.37
-0.17
-0.27
-0.56
-0.87
-1.07
-1.07
-0.91
-0.63
-0.32
-0.03
0.18
0.29
0.30
0.22
0.13
0.09
0.15
0.33
0.59
0.91
1.24
1.57
1.87
2.09
2.20
2.17
2.05
1.95
1.94
2.06
2.22
2.33
2.29
2.10
1.85
1.63
1.48
1.37
1.22
1.01
0.77
0.62
0.64
0.81
1.01
1.07
0.88
0.50
0.09
-0.17
-0.16
0.05
0.32
0.46
0.36
0.05
-0.37
-0.77
-1.11
-1.39
-1.63
-1.80
-1.83
-1.66
-1.29
-0.84
-0.47
-0.33
-0.48
-0.81
-1.18
-1.46
-1.60
-1.62
-1.60
-1.58
-1.56
-1.51
-1.43
-1.35
-1.29
-1.30
-1.33
-1.35
-1.31
-1.22
-1.14
-1.13
-1.24
-1.48
-1.78
-2.04
-2.17
-2.15
-2.00
-1.82
-1.74
-1.82
-2.05
-2.33
-2.54
-2.57
-2.40
-2.09
-1.75
-1.47
-1.29
-1.17
-1.07
-0.91
-0.67
-0.37
-0.04
0.30
0.58
0.78
0.85
0.80
0.69
0.60
0.64
0.86
1.25
1.73
2.20
2.57
2.81
2.91
2.94
2.95
2.96
2.99
3.00
2.97
2.90
2.76
2.53
2.20
1.79
1.35
0.93
0.55
0.23
-0.04
-0.25
-0.38
-0.38
-0.22
0.05
0.32
0.44
0.29
-0.14
-0.75
-1.34
-1.72
-1.74
-1.38
-0.76
-0.04
0.57
0.93
0.99
0.78
0.43
0.07
-0.18
-0.30
-0.27
-0.11
0.16
0.53
0.96
1.35
1.60
1.62
1.41
1.03
0.64
0.38
0.31
0.38
0.48
0.44
