1651186776.00
64.000000
-0.00
-0.00
-0.00
-0.00
-0.00
-0.00
-0.00
-0.00
-0.00
-0.00
0.00
0.01
0.01
-0.00
-0.03
-0.05
-0.05
0.00
0.13
0.36
0.66
1.01
1.37
1.72
2.06
2.40
2.79
3.24
3.80
4.42
5.06
5.66
6.20
6.68
7.15
7.68
8.31
9.14
10.09
11.04
11.88
12.56
13.14
13.76
14.65
15.96
17.91
20.32
22.90
25.38
27.58
29.57
31.68
34.32
37.81
42.54
48.15
54.10
59.83
64.97
69.58
74.14
79.34
85.71
93.76
103.00
112.62
121.73
129.77
136.75
143.30
150.75
157.77
166.64
177.95
191.79
206.97
220.57
228.25
225.36
208.53
176.87
132.76
80.05
23.07
-34.94
-92.44
-149.16
-205.23
-260.37
-313.74
-363.87
-409.83
-450.91
-486.51
-515.74
-537.23
-549.22
-549.96
-538.35
-514.18
-478.63
-433.82
-382.36
-326.88
-269.62
-212.31
-156.21
-102.40
-51.77
-5.33
36.03
71.69
101.41
125.39
144.18
158.50
169.06
176.44
180.98
182.94
182.53
180.02
175.80
170.33
164.03
157.22
150.10
142.72
135.10
127.32
119.51
111.87
104.60
97.76
91.30
85.03
78.74
72.32
65.84
59.57
53.86
49.02
45.14
41.99
39.15
36.14
32.63
28.62
24.50
20.84
18.24
16.97
16.86
17.31
17.58
17.01
15.36
12.89
10.08
7.57
5.80
4.76
3.97
2.31
-2.05
-11.34
-26.87
-47.85
-70.29
-87.63
-92.91
-81.47
-53.04
-11.95
34.42
77.94
111.68
130.88
133.13
118.47
89.76
52.49
14.01
-18.37
-39.57
-48.23
-46.58
-38.37
-27.86
-17.65
-8.69
-0.98
5.46
10.42
13.80
16.03
17.99
20.42
23.78
27.58
30.67
31.63
29.53
24.24
16.76
8.72
1.76
-3.07
-5.75
-7.18
-8.88
-11.96
-16.67
-22.18
-26.91
-29.30
-28.70
-25.76
-22.20
-20.44
-22.15
-27.61
-35.57
-43.61
-49.55
-52.57
-53.48
-54.37
-57.93
-65.82
-78.42
-95.12
-114.58
-135.14
-154.85
-170.67
-176.46
-168.65
-145.96
-110.48
-67.44
-23.62
17.57
55.15
90.39
124.69
156.80
182.44
195.57
189.99
166.04
130.28
92.53
61.67
42.07
32.34
27.75
23.66
18.28
13.07
10.86
12.92
17.99
22.80
23.51
17.97
6.64
-7.26
-18.33
-21.75
-15.23
-0.57
16.49
28.27
28.39
14.21
-12.34
-45.40
-78.50
-105.70
-122.79
-127.72
-120.75
-104.14
-81.99
-59.24
-40.27
-27.63
-21.27
-19.05
-18.17
-16.82
-14.17
-10.50
-6.34
-2.00
2.24
5.70
7.00
4.47
-3.05
-15.52
-31.59
-49.02
-65.37
-78.76
-88.29
-94.13
-97.22
-98.84
-99.61
-99.89
-99.68
-98.90
-97.64
-96.24
-95.36
-95.72
-97.98
-101.88
-106.90
-112.30
-117.16
-120.61
-121.76
-119.66
-113.09
-104.36
-94.18
-82.97
-71.05
-58.69
-46.06
-33.26
-20.25
-6.90
6.87
21.61
37.49
54.43
72.14
90.24
108.40
126.45
144.41
162.59
182.05
203.92
228.95
256.92
286.14
313.65
335.93
350.10
354.74
350.41
338.71
321.48
300.20
276.04
250.27
224.62
201.21
181.93
167.88
158.83
153.49
149.94
146.04
139.61
128.51
110.97
86.25
55.17
20.23
-15.00
-46.87
-72.79
-91.89
-104.93
-113.67
-120.18
-126.01
-131.78
-137.02
-140.53
-140.95
-137.38
-129.94
-119.83
-109.06
-99.68
-92.98
-89.02
-86.64
-84.13
-79.98
-73.54
-65.05
-55.52
-46.14
-37.68
-30.23
-23.55
-17.56
-12.60
-9.27
-7.75
-7.59
-8.10
-8.40
-7.74
-6.24
-4.87
-4.82
-6.83
-10.11
-12.85
-13.66
-11.58
-6.21
1.40
9.27
15.43
18.72
20.09
21.37
23.38
26.25
29.94
33.57
36.08
36.78
35.37
32.92
30.63
28.76
28.12
31.19
40.27
57.00
81.78
106.61
123.81
140.46
161.88
185.33
208.78
228.92
241.65
243.09
230.91
206.41
166.61
112.94
51.69
-7.82
-58.22
-96.40
-123.06
-140.58
-150.38
-153.18
-149.95
-142.23
-132.08
-121.99
-113.81
-108.16
-104.54
-101.50
-97.95
-94.00
-90.07
-87.47
-87.78
-91.71
-98.70
-107.15
-115.01
-121.11
-125.43
-130.02
-138.73
-154.61
-177.25
-201.75
-219.96
-223.46
-206.92
-168.85
-108.41
-32.05
50.07
127.01
189.01
229.01
243.57
230.18
193.65
145.88
100.58
67.32
48.23
38.30
30.46
19.17
0.35
-27.56
-64.83
-107.73
-148.99
-177.99
-183.76
-158.98
-103.49
-25.87
59.39
134.59
183.93
197.99
176.31
126.87
63.30
1.63
-43.62
-61.15
-47.02
-4.75
55.56
120.03
173.76
204.08
204.03
173.20
118.01
46.95
-31.30
-109.81
-183.62
-249.76
-306.19
-349.72
-376.72
-371.57
-326.02
-246.48
-153.97
-71.07
-8.21
35.74
75.99
122.81
175.75
223.56
252.07
249.97
215.43
155.77
82.73
7.92
-61.36
-120.63
-166.79
-195.93
-204.03
-188.87
-153.56
-107.81
-65.28
-39.81
-39.52
-62.99
-99.38
-133.13
-150.10
-143.26
-114.89
-74.14
-28.80
11.00
38.93
54.96
63.09
67.14
68.02
64.64
56.40
44.59
32.00
23.38
22.49
30.24
44.56
61.30
76.59
88.26
96.53
103.01
111.69
126.37
149.28
180.84
220.02
264.98
313.08
361.02
394.74
402.59
378.52
325.66
256.15
185.94
127.91
87.41
62.26
45.56
30.94
15.49
-1.18
-18.89
-38.19
-60.68
-88.48
-123.78
-164.85
-209.81
-257.41
-307.57
-360.35
-414.04
-463.55
-500.53
-515.80
-503.22
-462.70
-400.64
-328.04
-256.23
-193.02
-140.98
-98.03
-59.42
-19.95
24.49
75.94
133.01
190.25
238.71
268.00
271.19
249.16
211.87
174.89
153.33
155.70
181.20
221.52
264.62
299.01
315.79
309.15
276.35
218.37
141.88
59.77
-10.74
-53.97
-60.28
-28.83
33.72
116.22
205.21
288.02
354.13
397.35
414.27
405.89
377.41
337.50
295.16
254.27
214.71
174.10
133.36
92.74
53.14
15.08
-20.44
-52.95
-86.31
-124.29
-168.86
-214.70
-258.36
-298.03
-334.40
-367.63
-397.59
-428.58
-464.19
-505.67
-545.24
-578.29
-602.82
-620.27
-631.50
-609.16
-535.41
-407.09
-276.05
-164.77
-83.20
-22.73
17.21
37.18
40.45
30.02
13.16
0.52
9.33
48.46
117.90
208.81
309.67
408.21
489.65
542.16
559.43
546.80
511.85
463.61
409.35
355.61
306.44
261.10
217.56
174.59
135.39
101.85
74.40
51.29
31.30
14.13
-0.62
-12.66
-21.21
-24.39
-22.25
-16.46
-10.49
-7.07
-7.50
-11.68
-18.15
-24.89
-29.74
-31.98
-32.36
-34.17
-40.05
-50.79
-64.60
-77.99
-87.34
-90.57
-87.88
-81.81
-79.48
-87.23
-108.16
-140.85
-180.72
-222.62
-263.10
-301.38
-339.21
-384.85
-445.57
-524.68
-619.82
-723.98
-827.51
-919.76
-989.99
-1028.74
-1036.23
-1016.09
-974.56
-918.76
-856.32
-794.52
-737.90
-685.80
-593.55
-435.04
-211.13
45.95
291.38
491.57
634.32
724.85
776.75
803.93
809.40
793.09
756.04
704.35
647.99
596.68
556.49
529.14
512.57
497.47
475.96
444.51
405.53
364.98
328.73
300.18
279.94
266.54
254.22
239.98
220.25
195.25
167.56
139.98
114.31
91.48
71.98
54.37
36.17
17.81
0.38
-15.06
-27.59
-36.71
-41.85
-41.87
-36.92
-27.15
-12.78
6.23
29.60
55.86
81.51
99.31
103.82
92.12
65.85
31.17
-3.38
-30.40
-46.38
-52.49
-52.78
-51.29
-50.54
-50.17
-48.93
-46.17
-42.45
-39.03
-36.91
-35.32
-33.28
-29.44
-22.68
-13.11
-1.98
8.68
17.12
22.29
24.45
24.52
23.68
22.84
22.09
20.63
17.32
11.31
2.24
-9.11
-21.81
-34.72
-46.85
-57.60
-65.47
-70.93
-74.11
-76.27
-75.97
-72.59
-65.85
-55.94
-43.39
-28.92
-13.37
3.71
20.76
37.13
51.98
64.41
73.58
78.79
79.78
76.72
70.19
61.21
51.11
40.39
28.96
16.30
1.73
-14.91
-31.79
-48.18
-62.63
-73.32
-79.32
-80.77
-79.21
-77.41
-78.61
-84.92
-96.05
-107.93
-113.75
-107.11
-84.72
-48.40
-4.67
37.79
70.75
88.13
87.05
67.76
33.85
-7.55
-46.48
-72.63
-78.90
-64.55
-35.78
-2.80
24.71
41.51
47.93
47.64
44.69
41.17
37.03
31.62
25.29
19.62
16.42
16.76
19.81
23.40
25.19
23.64
18.86
12.40
6.46
2.81
2.12
3.64
5.78
6.80
5.60
2.17
-2.55
-7.20
-10.60
-12.27
-12.57
-12.40
-12.74
-14.27
-17.01
-20.53
-24.13
-27.22
-29.52
-31.18
-32.59
-34.18
-36.21
-38.71
-41.43
-44.01
-46.04
-47.18
-47.17
-45.78
-42.82
-38.20
-31.97
-24.20
-15.21
-5.47
4.48
14.10
22.90
30.55
36.80
41.51
44.56
45.89
45.53
43.62
40.51
36.72
32.87
29.51
27.00
25.35
24.30
23.49
22.67
21.92
21.64
22.39
24.61
28.25
32.70
36.93
39.92
41.16
41.04
40.76
41.81
45.17
50.72
57.16
62.65
65.87
66.85
67.01
68.13
71.09
74.90
76.82
73.47
62.15
41.46
11.48
-26.40
-69.38
-112.81
-149.95
-172.91
-175.02
-153.79
-113.13
-62.58
-13.97
23.56
47.30
61.69
75.87
98.40
134.55
183.67
239.40
292.33
333.57
357.57
363.30
353.53
333.15
307.28
279.81
253.14
228.55
206.87
188.82
174.70
163.94
154.71
144.26
129.54
108.29
79.98
46.05
9.21
-27.51
-62.01
-93.69
-123.41
-152.99
-184.32
-218.65
-256.43
-297.58
-341.75
-388.26
-435.55
-480.74
-519.76
-548.30
-563.23
-563.99
-552.97
-534.79
-514.37
-495.12
-477.81
-460.77
-441.27
-417.14
-388.01
-355.24
-321.01
-286.88
-252.75
-216.88
-176.67
-130.07
-76.82
-18.59
41.66
101.10
157.97
212.08
264.27
315.62
366.85
418.30
470.43
523.96
579.19
634.74
686.44
727.44
750.08
748.64
721.71
672.94
609.56
539.66
469.67
403.17
341.19
283.49
229.49
178.51
129.53
81.00
31.35
-20.20
-73.01
-124.91
-172.90
-214.03
-246.38
-269.76
-285.97
-298.58
-312.12
-330.67
-356.27
-387.71
-420.65
-448.92
-466.75
-470.67
-460.27
-437.52
-405.39
-366.51
-322.69
-275.58
-227.68
-182.88
-146.17
-122.28
-113.93
-120.84
-139.65
-165.12
-191.86
-215.99
-236.06
-252.86
-268.39
-284.23
-300.54
-315.64
-326.46
-329.62
-322.81
-305.75
-280.50
-250.69
-219.68
-189.93
-162.22
-135.94
-109.82
-82.82
-54.78
-26.36
1.51
29.54
58.83
90.57
125.39
163.01
202.29
241.32
278.01
310.59
339.89
367.26
394.08
421.20
448.99
477.79
508.44
542.39
580.71
625.04
673.35
719.38
754.25
769.79
762.07
733.06
689.68
624.40
535.39
425.15
301.53
176.13
60.71
-36.08
-110.24
-162.20
-195.83
-214.84
-223.47
-225.67
-224.63
-222.47
-219.81
-217.50
-216.40
-218.02
-222.56
-230.25
-240.85
-253.44
-266.52
-278.44
-287.89
-293.84
-291.27
-276.14
-246.29
-202.78
-150.55
-97.60
-52.52
-21.31
-5.15
-0.58
-1.76
-3.39
-2.88
-0.56
1.95
3.57
4.62
6.49
10.24
15.49
20.82
24.65
26.10
25.20
23.18
21.59
21.65
23.79
27.20
30.61
32.86
33.36
32.29
30.54
29.17
29.03
30.30
32.24
33.65
33.29
30.35
24.43
15.89
5.65
-5.26
-15.97
-26.13
-35.92
-45.70
-55.88
-66.58
-77.40
-87.53
-95.92
-101.83
-105.19
-106.80
-107.79
-109.50
-112.97
-118.39
-125.12
-132.00
-138.01
-142.71
-146.65
-150.58
-155.71
-163.39
-174.80
-190.65
-210.48
-232.07
-251.27
-262.87
-261.64
-245.22
-215.33
-177.29
-137.81
-102.31
-72.88
-47.77
-27.50
-10.97
2.88
14.53
24.45
33.57
43.59
56.30
72.62
91.99
113.26
134.80
155.35
174.85
194.45
215.55
239.37
266.55
297.11
331.10
367.94
406.03
442.53
473.56
494.97
504.04
500.51
486.55
465.52
439.97
410.73
378.03
343.29
309.72
282.91
268.59
270.06
286.37
312.61
342.16
369.47
391.30
404.18
405.99
395.66
373.68
341.92
303.35
261.59
220.22
181.95
143.65
102.37
57.11
9.99
-35.95
-78.88
-118.83
-157.01
-194.63
-239.17
-294.93
-361.76
-434.24
-505.87
-572.66
-633.65
-689.54
-740.97
-796.69
-861.49
-935.33
-1012.08
-1084.72
-1149.89
-1208.31
-1262.86
-1260.79
-1173.18
-1006.75
-803.26
-606.39
-437.33
-295.87
-172.17
-57.62
50.33
133.28
185.93
208.14
207.76
196.66
184.32
176.02
173.23
175.79
176.72
171.61
159.57
144.61
132.31
125.02
123.07
125.69
132.62
140.01
145.88
149.18
150.80
153.10
155.26
157.34
160.03
164.99
172.06
181.06
190.69
199.53
208.15
213.03
214.14
212.85
211.70
213.13
219.55
232.37
251.35
276.60
297.65
305.43
291.96
254.74
200.25
142.34
97.16
76.62
88.34
121.45
164.14
204.58
235.34
256.48
272.26
287.64
278.58
280.38
285.61
290.20
288.75
275.83
249.81
211.08
161.34
102.76
42.51
-19.90
-77.96
-123.26
-147.35
-141.26
-102.59
-37.78
39.63
117.69
181.39
226.37
254.51
249.51
204.13
121.59
15.66
-96.21
-198.36
-286.28
-358.39
-415.93
-461.33
-493.93
-513.08
-520.53
-518.58
-507.97
-491.14
-469.13
-443.37
-415.82
-385.93
-352.77
-314.99
-273.39
-227.78
-179.03
-128.44
-78.78
-33.83
4.51
35.81
61.12
82.73
104.35
128.66
156.52
186.92
217.78
247.32
273.20
292.03
300.11
296.83
284.66
269.46
258.91
259.42
272.71
293.87
312.46
317.06
303.29
274.01
238.42
208.47
194.07
199.64
223.03
257.66
296.21
336.59
377.84
417.67
450.18
466.57
458.52
422.31
361.67
269.75
155.86
39.00
-60.68
-132.10
-176.51
-202.45
-218.24
-228.27
-233.32
-229.35
-215.99
-196.85
-178.17
-166.06
-164.02
-172.17
-188.19
-208.54
-227.76
-240.29
-243.92
-239.68
-230.68
-220.36
-211.28
-204.28
-198.40
-190.16
-176.88
-158.28
-136.32
-113.73
-92.32
-72.41
-53.17
-33.35
-10.93
15.85
48.22
86.43
128.62
169.90
202.65
218.80
213.07
185.85
142.92
93.10
44.80
3.45
-29.14
-53.53
-70.85
-81.64
-86.13
-85.10
-80.58
-75.46
-72.39
-72.78
-76.28
-81.11
-85.07
-86.68
-85.72
-83.26
-81.05
-80.59
-82.39
-85.71
-89.15
-91.37
-91.88
-91.22
-90.65
-91.41
-94.20
-98.97
-105.27
-112.59
-120.57
-128.72
-136.18
-141.63
-143.65
-141.43
-135.19
-126.23
-116.32
-107.03
-99.24
-93.12
-88.60
-85.73
-84.75
-85.76
-88.14
-90.22
-89.37
-82.86
-69.10
-48.52
-23.88
0.30
19.01
28.55
27.94
19.47
7.87
-1.62
-5.08
-1.05
9.70
25.20
43.67
64.17
86.49
110.32
133.99
155.06
171.14
181.12
185.66
186.87
187.28
188.96
192.69
196.38
197.08
192.40
182.07
168.15
154.42
145.17
143.95
152.26
166.17
179.92
188.55
190.62
188.16
184.59
182.43
182.10
181.65
173.34
150.10
108.57
51.28
-15.51
-86.06
-157.29
-228.50
-300.06
-377.96
-466.44
-566.16
-672.12
-776.15
-871.52
-954.88
-1025.73
-1048.96
-999.65
-872.60
-688.23
-477.48
-264.61
-64.39
113.46
260.98
372.86
443.13
477.71
485.04
476.16
462.17
449.16
438.39
428.98
421.01
412.41
403.31
396.31
392.04
396.52
415.05
450.02
500.04
559.75
617.79
661.98
682.81
677.68
651.60
612.61
568.46
524.29
482.07
440.10
396.19
349.08
299.67
250.60
203.60
159.06
116.63
76.45
39.05
5.74
-22.03
-43.10
-56.95
-64.56
-67.98
-69.56
-70.96
-72.93
-75.32
-77.58
-79.25
-80.05
-80.40
-81.06
-82.77
-85.85
-90.09
-94.85
-99.32
-102.87
-105.17
-106.30
-106.61
-106.47
-106.11
-105.55
-104.69
-103.40
-101.72
-99.83
-98.06
-96.71
-95.97
-95.89
-96.34
-97.21
-98.39
-99.82
-101.42
-102.97
-103.99
-103.81
-101.67
-96.98
-90.29
-82.45
-74.33
-66.47
-59.23
-52.82
-47.29
-42.47
-38.25
-35.61
-35.82
-40.04
-48.99
-62.84
-81.18
-102.90
-126.13
-148.81
-170.96
-192.91
-214.95
-237.39
-261.14
-287.48
-316.75
-346.99
-373.61
-394.90
-407.88
-408.86
-395.32
-369.34
-338.25
-311.92
-298.13
-299.47
-322.46
-365.64
-418.30
-463.29
-485.20
-476.42
-438.25
-378.61
-310.07
-262.74
-259.23
-305.63
-390.34
-494.10
-600.16
-698.12
-782.82
-853.60
-933.21
-1036.78
-1163.46
-1297.24
-1419.94
-1521.72
-1601.66
-1661.82
-1581.28
-1297.84
-834.18
-292.71
218.51
638.48
951.16
1164.31
1295.52
1376.18
1407.05
1390.98
1340.41
1277.61
1224.48
1195.12
1184.50
1187.27
1195.80
1169.04
1084.11
944.81
777.83
614.56
476.85
374.89
313.55
286.14
273.80
262.68
244.62
217.17
180.91
137.31
91.93
55.72
39.46
44.63
69.15
106.06
146.23
177.05
185.81
168.77
134.14
93.34
51.99
12.09
-26.22
-61.53
-90.74
-110.29
-117.86
-114.14
-104.21
-94.97
-91.19
-94.60
-103.59
-113.90
-120.65
-120.18
-111.90
-98.98
-86.96
-79.17
-76.62
-77.70
-78.04
-72.91
-58.45
-33.17
0.67
37.55
70.14
90.88
91.29
70.10
32.05
-12.41
-50.35
-70.44
-66.46
-39.01
4.84
54.09
99.25
133.05
153.31
162.05
163.23
160.63
156.36
153.19
149.12
144.55
139.31
133.76
127.63
119.70
108.25
91.79
69.99
41.67
13.74
-11.78
-32.98
-48.15
-55.69
-54.02
-42.37
-21.64
4.39
30.04
46.16
44.93
22.45
-20.06
-76.99
-140.68
-203.48
-259.43
-296.38
-306.17
-287.62
-247.82
-199.16
-154.39
-122.59
-106.80
-104.63
-110.31
-119.31
-128.89
-137.73
-145.54
-150.99
-152.73
-150.22
-144.13
-135.99
-128.24
-122.88
-120.28
-119.17
-117.16
-111.99
-102.15
-87.01
-69.31
-51.83
-36.75
-24.86
-15.48
-6.90
2.50
13.68
26.53
40.11
53.29
65.17
75.70
85.79
96.95
110.75
128.39
150.25
175.62
202.59
227.93
247.76
258.48
257.91
246.14
225.74
200.69
174.86
150.67
128.18
105.79
81.64
55.12
27.75
2.98
-15.49
-25.48
-27.23
-23.27
-17.17
-11.98
-9.04
-7.57
-4.62
2.74
15.88
33.83
53.65
71.66
84.75
91.30
91.70
89.38
88.11
91.10
100.54
117.90
143.95
177.47
213.87
245.02
263.43
263.05
242.45
206.39
165.32
131.85
115.83
120.53
143.04
180.24
228.46
283.71
340.47
390.85
425.17
434.57
414.11
348.21
239.85
109.21
-14.08
-106.24
-160.05
-183.28
-189.64
-191.73
-196.08
-199.76
-195.73
-178.43
-146.13
-101.71
-52.54
-9.28
14.57
8.69
-27.22
-85.03
-152.37
-217.37
-271.20
-311.39
-341.42
-370.26
-405.02
-445.74
-487.37
-523.67
-550.39
-565.54
-567.45
-537.57
-464.75
-351.95
-218.31
-90.78
9.15
73.42
106.96
121.68
129.20
133.70
134.35
129.82
121.59
114.00
111.37
114.85
121.41
126.13
123.34
111.19
93.02
75.66
65.94
67.33
78.82
96.23
114.51
128.50
135.43
135.33
129.99
121.65
111.83
100.83
88.00
72.75
54.45
33.65
12.21
-7.18
-21.86
-29.77
-30.35
-24.05
-11.91
4.56
23.79
44.40
65.26
85.17
103.17
118.14
129.25
136.17
139.04
138.08
133.18
126.13
117.84
109.12
100.04
90.88
82.41
75.80
72.16
72.16
75.89
82.59
90.98
97.64
99.58
95.45
85.63
71.32
53.83
34.45
14.29
-5.63
-28.15
-55.12
-85.71
-116.51
-143.89
-165.76
-181.79
-193.04
-201.46
-215.10
-239.73
-275.56
-317.17
-357.47
-390.98
-414.86
-428.25
-431.98
-435.54
-446.29
-465.53
-489.02
-512.53
-535.65
-560.96
-590.35
-575.18
-487.82
-334.55
-151.11
25.06
171.29
278.89
348.92
389.78
412.76
419.42
408.13
376.78
328.48
269.14
205.56
145.54
97.65
68.26
53.12
44.87
37.63
29.55
20.17
13.15
7.43
0.35
-11.42
-34.72
-73.07
-123.31
-175.77
-208.41
-207.03
-171.88
-118.15
-66.16
-32.49
-22.85
-32.68
-51.81
-72.76
-91.68
-105.25
-111.03
-106.95
-92.24
-66.38
-28.84
21.29
83.41
153.59
230.83
313.85
400.10
485.16
564.09
632.04
684.68
718.42
704.39
630.33
505.62
356.58
210.89
86.56
-10.22
-81.52
-133.35
-172.87
-201.71
-220.16
-228.59
-229.81
-224.78
-214.09
-198.49
-178.81
-155.68
-125.66
-86.01
-37.90
11.87
55.98
90.00
114.25
132.40
147.71
162.01
172.09
171.54
155.52
125.74
90.24
59.50
41.08
35.87
40.21
48.13
55.11
59.43
62.28
65.35
69.11
72.71
73.94
72.10
68.10
63.97
62.11
64.38
70.89
80.39
91.13
100.85
108.41
113.88
118.17
122.37
126.95
130.68
130.91
129.07
124.76
117.95
109.03
98.83
88.36
78.25
67.86
56.49
44.05
30.51
16.59
3.10
-9.13
-19.28
-27.14
-35.14
-45.22
-57.51
-70.97
-83.88
-95.22
-104.36
-110.59
-114.54
-122.13
-137.41
-160.36
-187.43
-214.03
-237.28
-255.65
-267.43
-273.77
-284.27
-305.91
-339.35
-379.50
-419.74
-456.21
-486.63
-508.37
-523.24
-544.75
-582.73
-638.91
-707.02
-778.94
-850.47
-918.59
-979.98
-974.56
-876.18
-700.06
-495.71
-311.02
-170.44
-77.88
-38.00
-24.14
-17.13
-19.17
-30.55
-46.81
-60.35
-57.57
-37.88
-0.07
58.41
134.16
207.39
267.52
314.46
355.75
397.44
441.78
497.48
573.17
668.00
760.81
838.88
900.37
951.45
996.60
995.14
924.76
795.05
692.22
634.91
623.09
632.63
651.50
664.72
657.23
626.25
575.46
508.82
419.14
281.72
103.07
-88.14
-265.88
-416.72
-531.85
-606.63
-639.92
-641.50
-616.64
-576.04
-522.60
-464.57
-410.22
-359.37
-307.69
-250.46
-190.32
-125.70
-54.86
20.09
90.60
157.18
221.27
281.82
336.29
366.22
363.13
327.72
266.82
187.45
86.26
-28.91
-144.32
-245.35
-322.81
-369.10
-380.81
-361.08
-319.91
-270.41
-223.42
-188.43
-163.34
-144.40
-126.35
-106.20
-84.89
-64.72
-47.64
-33.67
-21.80
-9.81
0.80
9.01
13.07
9.52
-2.46
-21.31
-43.37
-63.88
-77.01
-79.11
-67.69
-42.34
-6.42
38.72
94.07
156.10
217.65
269.94
303.35
311.36
305.93
286.13
251.41
204.61
151.14
90.38
27.52
-31.50
-80.76
-115.31
-134.86
-140.62
-136.42
-127.76
-118.81
-109.37
-96.05
-73.62
-37.49
13.15
74.02
137.47
194.14
236.49
260.30
262.67
242.23
201.08
144.85
84.09
30.48
-8.06
-27.69
-33.65
-33.38
-33.78
-39.78
-55.25
-82.45
-122.43
-173.87
-229.70
-279.62
-313.07
-323.07
-308.88
-277.25
-239.27
-205.79
-183.28
-173.23
-170.62
-170.01
-167.88
-163.43
-157.93
-152.84
-148.61
-144.34
-138.56
-130.42
-120.09
-108.23
-95.32
-83.25
-72.21
-61.07
-48.22
-32.43
-13.52
7.41
28.68
48.64
66.21
81.59
95.98
110.74
126.66
143.82
161.93
181.14
201.99
224.19
245.56
261.35
264.29
246.95
204.81
138.35
53.12
-42.09
-137.82
-225.15
-294.88
-339.16
-352.68
-334.19
-287.64
-221.92
-149.03
-80.50
-24.08
20.28
56.19
87.51
116.56
144.79
173.95
206.30
243.57
285.67
333.93
386.31
437.66
481.91
515.21
536.82
547.61
548.72
541.41
532.83
529.06
532.08
538.61
541.97
534.93
512.18
472.58
387.70
253.82
92.39
-61.25
-180.06
-256.48
-297.29
-313.97
-316.84
-311.59
-299.35
-281.79
-262.77
-247.06
-236.96
-230.47
-223.60
-213.13
-199.23
-180.01
-157.88
-136.79
-119.13
-102.98
-83.06
-55.06
-18.57
21.09
58.64
87.87
105.61
112.70
113.10
110.75
106.65
98.17
81.15
53.85
14.99
-33.70
-88.12
-143.27
-195.22
-241.99
-282.75
-316.55
-341.16
-356.90
-363.99
-362.87
-354.81
-343.15
-333.44
-331.88
-343.31
-349.97
-340.80
-314.92
-280.91
-247.28
-215.64
-181.49
-139.00
-85.42
-23.17
37.74
86.94
118.35
132.37
134.06
129.65
123.74
118.37
113.80
107.32
97.63
85.79
74.40
65.56
59.42
54.57
49.15
42.09
32.00
19.21
5.43
-6.90
-15.91
-21.06
-23.51
-23.84
-22.41
-19.66
-15.21
-8.18
2.16
15.37
29.87
43.20
53.43
59.86
63.24
65.40
68.38
73.39
80.26
87.67
93.59
96.52
95.82
92.04
86.36
80.64
76.90
77.10
82.18
90.94
100.21
105.44
102.77
90.41
70.31
47.96
29.01
20.21
26.38
49.02
86.07
132.25
179.55
218.38
239.34
235.45
203.59
145.57
68.00
-19.39
-106.64
-186.09
-253.49
-307.23
-341.24
-349.54
-330.01
-286.87
-229.50
-168.61
-112.61
-66.05
-29.72
-1.90
19.61
36.49
49.52
59.10
65.45
68.92
70.12
70.20
70.65
72.17
75.31
78.23
78.56
74.02
62.97
44.65
19.09
-13.06
-51.04
-92.24
-131.81
-163.26
-180.30
-179.43
-161.90
-134.00
-104.56
-81.90
-70.46
-69.82
-75.81
-83.29
-89.06
-91.74
-91.51
-88.86
-84.06
-77.07
-68.14
-57.78
-47.02
-36.91
-28.26
-21.26
-15.74
-11.61
-8.88
-7.92
-8.68
-10.92
-13.98
-16.85
-18.46
-17.92
-14.66
-8.13
-0.74
6.93
15.33
25.64
39.90
60.50
89.12
125.33
165.21
200.82
221.74
217.51
181.69
115.39
28.25
-64.04
-144.62
-201.06
-228.33
-228.73
-209.69
-180.30
-148.54
-120.49
-100.54
-91.56
-94.77
-108.65
-128.74
-149.14
-164.48
-171.58
-170.38
-163.31
-153.48
-143.92
-135.96
-129.85
-125.71
-123.70
-122.56
-120.14
-113.64
-100.46
-80.29
-53.43
-21.63
11.82
43.80
74.50
105.96
140.91
181.00
223.66
267.39
311.12
353.87
395.21
437.20
479.28
517.26
544.95
554.64
548.84
537.71
532.52
540.03
562.34
593.84
625.63
651.17
665.32
674.15
686.51
706.00
698.76
637.87
512.97
337.82
172.70
38.75
-60.16
-129.57
-187.86
-247.31
-311.21
-377.49
-441.44
-498.75
-551.81
-598.78
-635.97
-658.19
-661.09
-647.62
-622.88
-592.29
-558.60
-528.37
-501.42
-473.40
-439.47
-396.01
-342.12
-280.57
-216.76
-156.33
-105.03
-62.22
-24.00
13.12
51.56
91.47
131.72
170.96
208.48
242.98
274.86
304.53
331.62
356.53
378.81
396.76
406.80
404.04
383.33
342.51
283.49
203.19
108.46
12.62
-69.80
-129.99
-167.39
-186.84
-193.49
-190.54
-179.90
-162.45
-141.40
-121.91
-108.99
-104.97
-108.62
-115.15
-118.93
-115.89
-103.94
-84.71
-62.65
-42.70
-28.49
-21.70
-21.23
-23.56
-24.56
-19.09
-3.00
24.64
59.92
94.03
114.67
111.37
79.63
23.11
-46.86
-115.65
-170.68
-205.08
-214.26
-202.50
-177.19
-144.64
-108.73
-71.77
-36.16
-5.05
18.17
31.68
35.58
33.23
29.51
28.72
32.84
41.36
51.94
61.62
68.05
69.69
67.08
62.08
56.11
49.58
42.10
32.79
21.02
7.17
-7.38
-19.75
-26.70
-24.59
-13.13
5.97
28.77
51.91
72.02
86.38
93.80
94.45
89.22
78.79
63.56
43.77
20.07
-6.26
-33.56
-59.23
-80.42
-94.86
-102.12
-103.44
-101.22
-98.61
-97.62
-99.47
-104.26
-111.54
-120.07
-127.73
-131.30
-127.41
-116.95
-100.69
-83.42
-71.10
-67.64
-72.18
-79.00
-80.44
-69.05
-45.10
-13.43
18.81
46.53
68.29
85.72
101.41
115.82
126.41
128.73
119.64
97.51
63.51
21.01
-25.07
-67.98
-101.18
-119.83
-122.63
-111.57
-93.14
-72.26
-53.59
-39.61
-30.10
-22.24
-12.07
3.22
24.48
50.09
76.97
100.97
118.92
128.62
129.99
124.47
113.67
99.47
83.95
70.33
62.07
62.99
75.41
98.85
132.37
173.19
216.26
254.59
280.49
286.74
274.29
243.17
198.92
150.97
108.59
77.60
58.98
49.83
45.08
40.76
34.56
27.28
20.83
16.23
12.68
7.57
0.80
-8.95
-22.84
-42.38
-68.14
-99.71
-135.08
-169.56
-195.71
-204.68
-189.77
-149.43
-89.63
-22.17
38.89
81.83
101.00
97.51
77.44
48.22
16.37
-13.86
-39.91
-59.75
-71.71
-74.64
-69.40
-58.90
-48.15
-43.03
-48.64
-67.46
-97.45
-131.59
-158.92
-169.21
-155.29
-115.68
-55.51
14.58
81.10
131.64
158.10
157.80
130.00
77.73
8.09
-68.28
-139.16
-193.55
-224.00
-228.11
-208.91
-177.85
-147.28
-124.95
-112.05
-105.30
-100.73
-95.98
-90.82
-86.59
-90.57
-108.49
-141.37
-185.75
-237.54
-295.04
-358.82
-430.01
-472.98
-463.37
-399.99
-305.19
-205.39
-116.71
-44.74
10.61
51.45
80.32
93.98
90.34
71.95
47.22
27.05
20.50
32.08
60.64
100.06
137.43
161.56
167.96
159.89
144.60
128.22
114.33
103.34
95.03
87.02
78.71
71.63
68.59
71.18
78.35
87.26
93.92
96.45
93.07
83.27
67.49
46.72
21.73
-7.20
-39.47
-74.52
-108.57
-137.55
-156.85
-162.30
-150.91
-121.76
-77.19
-23.55
28.95
73.14
104.68
123.71
131.94
131.41
123.47
108.88
96.52
84.83
74.43
66.50
64.11
68.80
81.04
100.07
124.87
155.95
183.70
205.39
220.25
230.94
239.18
246.65
254.05
261.53
269.92
280.12
296.80
306.87
303.36
283.54
250.43
206.96
153.18
88.75
15.31
-60.12
-127.31
-171.28
-188.57
-177.84
-142.04
-88.50
-27.50
29.49
64.53
68.66
44.85
2.43
-45.06
-87.01
-118.28
-138.63
-151.62
-162.68
-176.95
-199.32
-234.13
-279.55
-328.38
-369.23
-389.42
-379.50
-336.96
-265.61
-169.44
-67.26
23.90
94.18
141.42
167.75
176.64
171.60
157.23
139.16
122.75
114.26
116.75
127.96
140.35
143.86
130.15
97.15
50.22
-0.26
-41.50
-65.02
-69.67
-61.33
-49.16
-40.58
-38.52
-41.31
-44.46
-42.28
-31.37
-10.55
18.54
51.50
81.19
99.11
96.60
72.26
31.72
-14.06
-53.10
-77.76
-87.12
-86.25
-82.39
-80.74
-82.01
-83.79
-83.09
-78.37
-70.75
-62.34
-54.07
-44.85
-32.34
-14.37
8.61
33.88
57.44
74.76
83.59
84.69
80.99
76.10
72.97
72.80
75.19
79.11
82.38
84.03
84.78
86.48
90.97
98.96
108.99
117.42
119.13
107.48
78.45
32.42
-26.08
-89.93
-151.81
-206.38
-250.86
-274.56
-274.03
-251.90
-214.08
-167.22
-117.06
-68.19
-24.31
11.99
38.88
55.50
62.18
61.82
59.49
61.30
72.25
92.38
118.57
143.59
158.72
159.06
145.77
124.35
101.47
81.93
67.17
56.86
49.65
45.12
44.16
47.32
52.49
54.52
47.29
26.50
-7.09
-48.63
-89.71
-121.84
-139.89
-143.98
-138.48
-129.24
-120.83
-114.92
-112.14
-111.58
-112.25
-113.87
-116.60
-120.30
-124.28
-127.49
-121.25
-104.83
-80.88
-53.27
-25.95
-1.61
18.68
35.30
49.45
62.72
75.11
86.11
95.40
102.44
107.09
109.88
111.82
113.88
116.89
120.40
122.18
120.33
113.35
100.82
83.89
64.62
45.82
30.11
18.43
9.27
0.53
-10.20
-24.47
-42.20
-62.35
-82.94
-102.38
-114.18
-119.30
-121.29
-124.51
-131.81
-144.34
-161.64
-180.99
-197.61
-204.97
-198.07
-174.17
-135.50
-92.29
-52.22
-23.35
-10.28
-11.50
-19.05
-23.70
-18.62
-2.28
22.43
49.34
72.98
90.92
104.33
117.67
134.64
157.13
178.06
198.88
214.65
221.24
215.69
190.71
146.92
93.69
44.95
10.72
-6.58
-12.26
-13.07
-13.56
-14.80
-14.63
-11.81
-7.76
-5.98
-8.77
-16.80
-27.39
-36.40
-39.89
-35.16
-22.52
-5.22
12.12
25.90
34.29
38.19
39.66
40.72
42.77
45.91
48.20
47.46
42.23
32.70
20.88
9.17
-0.76
-8.37
-14.58
-21.17
-29.54
-40.60
-53.46
-66.01
-76.19
-83.02
-86.99
-89.66
-93.03
-98.71
-108.57
-122.83
-139.80
-156.28
-168.06
-170.96
-162.29
-142.18
-106.91
-60.16
-8.05
43.64
91.44
134.92
175.75
215.24
252.07
281.60
296.10
289.56
260.52
212.58
153.45
92.62
38.80
-2.42
-28.96
-42.35
-44.83
-38.25
-24.89
-7.77
9.34
22.57
28.42
24.14
7.25
-23.29
-62.68
-102.78
-136.47
-162.41
-183.47
-201.86
-216.21
-221.92
-212.91
-185.09
-140.05
-85.51
-32.49
9.36
35.32
46.35
47.20
43.63
39.86
37.07
34.39
30.83
26.81
23.86
23.16
24.54
26.68
27.91
26.80
23.19
18.16
13.64
11.38
11.71
13.45
14.68
13.70
9.92
4.23
-1.52
-5.35
-6.33
-5.41
-4.98
-7.42
-14.20
-24.94
-37.37
-48.42
-55.48
-56.07
-49.18
-35.17
-15.83
5.58
24.97
38.60
44.18
42.67
38.15
35.63
38.51
46.63
56.20
61.68
58.71
46.37
28.07
9.95
-2.13
-5.35
-1.17
5.23
7.79
2.68
-10.36
-27.98
-45.62
-60.00
-70.35
-78.00
-84.60
-90.79
-94.64
-93.59
-85.90
-71.77
-53.41
-33.93
-16.17
-1.61
9.89
19.62
28.85
38.13
46.90
53.68
56.79
55.10
48.67
38.58
26.58
14.37
3.16
-6.57
-14.93
-22.37
-29.24
-35.46
-40.79
-45.04
-48.27
-50.80
-53.18
-55.89
-59.28
-63.38
-67.65
-71.67
-75.15
-78.20
-81.03
-83.92
-86.94
-89.91
-92.50
-93.88
-93.59
-91.54
-87.97
-83.10
-76.81
-68.27
-55.91
-41.21
-24.39
-5.77
14.12
34.50
54.37
72.39
87.10
97.22
102.17
103.13
102.34
102.63
106.29
114.15
125.07
136.43
145.18
149.09
147.87
142.57
134.93
126.43
117.82
109.05
99.75
89.65
78.87
68.14
58.17
49.39
41.73
34.87
28.41
22.27
16.67
12.06
8.93
7.43
7.25
7.76
8.27
8.28
7.69
6.68
5.54
4.47
3.33
1.83
-0.37
-3.28
-6.58
-9.64
-11.76
-12.39
-11.30
-8.64
-4.94
-0.89
2.80
5.60
7.33
8.12
8.44
8.73
9.25
9.91
10.43
10.47
9.91
8.92
7.90
7.27
7.35
8.25
9.85
11.92
14.24
16.72
19.47
22.76
26.80
31.70
37.32
43.28
49.00
53.97
57.84
60.56
62.28
63.29
63.82
63.95
63.60
62.54
60.56
57.59
53.74
49.25
44.41
39.37
34.17
28.75
23.13
17.44
12.00
7.24
3.59
1.28
0.25
0.22
0.70
1.18
1.24
0.59
-0.91
-3.25
-6.36
-10.16
-14.54
-19.38
-24.55
-29.85
-35.05
-39.82
-43.78
-46.55
-47.89
-47.74
-46.28
-43.96
-41.36
-39.06
-37.49
-36.77
-36.70
-36.82
-36.60
-35.63
-33.87
-31.55
-29.04
-26.70
-24.69
-22.96
-21.37
-19.83
-18.29
-16.84
-15.60
-14.64
-14.06
-13.89
-14.21
-14.96
-15.96
-16.82
-17.12
-16.53
-15.00
-12.78
-10.37
-8.32
-6.97
-6.50
-6.85
-7.94
-9.69
-11.98
-14.59
-17.04
-18.69
-19.01
-17.83
-15.51
-12.92
-10.98
-10.15
-10.22
-10.29
-9.35
-6.93
-3.51
-0.41
0.77
-1.05
-5.72
-11.89
-17.46
-20.53
-20.11
-16.53
-11.25
-6.35
-4.06
-6.27
-14.46
-29.25
-50.17
-75.22
-101.05
-123.54
-139.17
-146.24
-145.59
-140.05
-133.07
-126.94
-121.74
-115.23
-104.37
-87.24
-64.45
-39.08
-15.34
3.41
15.94
23.44
28.76
34.69
42.63
52.29
62.42
71.97
80.63
88.39
95.04
99.87
101.47
98.52
90.67
79.53
68.61
62.15
62.68
69.55
78.74
83.68
77.93
57.74
23.28
-18.95
-57.35
-80.86
-84.74
-71.75
-49.67
-25.66
-3.77
15.27
32.63
49.70
66.12
80.57
92.22
100.30
105.51
109.08
112.81
116.37
118.30
115.25
103.97
82.64
50.23
8.46
-39.08
-87.80
-132.80
-169.54
-195.57
-209.55
-203.08
-175.92
-132.29
-78.91
-23.15
26.95
70.16
105.28
130.95
146.12
148.54
137.14
112.05
72.61
22.57
-32.27
-87.29
-138.50
-181.43
-211.53
-223.21
-212.37
-179.37
-129.97
-74.22
-24.10
11.77
30.62
34.54
29.00
19.82
11.10
4.93
1.77
-0.03
-2.37
-7.07
-15.72
-28.73
-44.79
-61.04
-74.12
-78.86
-72.38
-54.59
-28.80
-1.34
20.25
30.16
26.79
14.57
3.93
4.87
23.74
60.45
108.47
157.32
196.42
218.64
218.26
197.83
162.66
117.97
67.65
14.76
-36.97
-82.87
-117.98
-138.38
-141.60
-128.98
-104.32
-72.65
-39.45
-9.44
11.82
21.20
19.40
11.35
3.03
-0.69
1.57
7.14
11.66
12.61
11.15
12.19
21.54
41.64
69.58
97.58
114.51
113.54
93.72
60.12
21.26
-15.24
-45.66
-70.30
-91.58
-111.45
-129.41
-143.31
-151.07
-151.21
-144.33
-132.88
-120.16
-108.56
-99.15
-91.26
-83.66
-75.33
-65.99
-56.55
-48.62
-43.91
-43.11
-46.00
-51.37
-57.63
-63.31
-67.43
-69.73
-70.63
-70.93
-71.01
-71.08
-70.95
-70.05
-67.50
-62.18
-52.92
-38.54
-21.12
-1.87
18.13
37.97
57.20
75.80
94.13
112.81
132.58
154.11
178.27
204.94
232.43
257.46
275.64
282.79
276.52
257.09
227.38
192.25
156.45
123.49
95.28
72.39
54.75
42.04
33.66
28.50
25.20
22.03
17.49
10.86
2.35
-6.99
-15.56
-21.82
-24.68
-23.72
-19.48
-13.42
-7.42
-3.29
-2.15
-4.13
-8.45
-13.88
-19.12
-23.34
-26.22
-27.81
-28.36
-28.11
-27.27
-26.06
-24.71
-23.42
-22.25
-21.13
-19.93
-18.67
-17.54
-16.87
-16.89
-17.47
-17.96
-17.29
-14.30
-8.15
1.27
13.24
26.45
39.50
51.33
61.47
69.80
76.45
81.48
84.87
86.78
87.63
87.94
88.02
87.84
87.22
86.57
87.23
91.31
100.57
115.03
132.07
146.89
154.22
150.45
135.00
110.25
80.20
48.67
17.96
-11.14
-38.68
-64.48
-87.56
-106.51
-120.13
-128.28
-132.07
-133.53
-134.74
-136.82
-139.47
-141.12
-139.82
-134.35
-125.03
-113.66
-102.82
-94.67
-90.05
-88.30
-87.80
-86.82
-84.27
-79.97
-74.45
-68.39
-62.18
-55.81
-49.03
-41.69
-33.95
-26.29
-19.28
-13.46
-9.10
-6.26
-4.72
-4.10
-3.89
-3.53
-2.63
-1.05
1.00
3.11
4.87
6.04
6.67
6.92
6.98
6.86
6.47
5.75
4.79
3.86
3.28
3.15
3.32
3.36
2.79
1.38
-0.82
-3.44
-5.93
-7.83
-8.85
-8.99
-8.42
-7.47
-6.47
-5.64
-5.02
-4.43
-3.61
-2.28
-0.38
1.90
4.20
6.05
7.13
7.36
6.88
5.94
4.89
4.05
3.60
3.63
3.95
4.16
3.83
2.57
0.34
-2.56
-5.63
-8.37
-10.47
-12.00
-13.26
-14.54
-15.98
-17.44
-18.66
-19.52
-20.17
-21.08
-22.92
-26.34
-31.56
-38.26
-45.57
-52.43
-58.01
-61.86
-64.14
-65.68
-67.67
-71.15
-76.67
-83.84
-91.58
-98.45
-102.51
-102.26
-97.28
-88.62
-78.66
-70.07
-64.26
-60.46
-55.62
-44.68
-23.31
9.71
51.19
94.47
132.06
158.68
172.94
176.98
176.02
175.86
181.27
194.90
216.95
245.20
275.11
300.15
306.87
284.62
230.83
154.68
73.48
3.89
-45.40
-74.75
-89.95
-97.36
-99.94
-97.91
-90.78
-79.70
-67.82
-59.00
-55.78
-58.31
-64.66
-70.85
-73.20
-69.73
-61.11
-50.33
-41.26
-36.90
-38.14
-43.66
-50.00
-53.21
-50.48
-41.42
-28.09
-13.95
-2.28
5.54
9.97
13.00
16.67
21.23
25.47
27.75
27.62
26.17
25.65
27.30
30.93
34.21
34.67
31.49
25.89
20.01
13.71
4.37
-12.10
-38.10
-71.10
-102.64
-120.86
-116.05
-85.82
-36.92
17.38
62.85
90.43
98.99
93.95
83.48
74.10
68.40
65.50
62.80
58.09
51.01
43.43
38.49
39.66
48.83
64.91
83.03
95.39
94.30
75.63
40.40
-5.64
-54.34
-98.04
-131.92
-151.65
-156.32
-148.32
-132.22
-113.06
-94.48
-76.80
-56.76
-29.31
9.65
60.51
119.89
182.10
240.95
289.94
323.42
337.16
328.91
299.57
253.17
196.30
136.30
79.34
27.71
-18.20
-57.85
-89.26
-109.31
-115.55
-107.46
-86.93
-58.12
-29.46
-9.77
-5.90
-20.76
-52.92
-98.06
-150.25
-203.49
-252.91
-299.13
-344.18
-389.49
-434.39
-476.98
-516.43
-553.37
-589.35
-603.83
-581.50
-517.18
-420.18
-308.09
-196.75
-96.30
-11.20
57.18
109.34
142.89
156.85
153.47
139.53
124.88
118.93
128.60
155.64
196.57
240.47
275.94
295.81
299.67
295.38
287.67
280.03
273.58
268.39
261.82
252.32
240.30
227.63
216.00
205.01
193.54
175.76
153.23
127.82
102.01
78.28
58.34
42.50
29.03
16.01
1.54
-14.31
-31.23
-47.77
-61.83
-71.39
-74.63
-71.21
-62.20
-51.18
-42.16
-39.24
-43.86
-53.66
-63.55
-67.69
-64.08
-53.58
-40.72
-30.52
-26.93
-30.97
-41.18
-54.71
-68.95
-82.42
-91.78
-96.10
-94.69
-87.25
-73.86
-55.60
-34.48
-13.09
5.78
20.37
29.70
34.36
36.02
36.65
37.80
40.25
44.11
48.83
54.01
59.12
64.07
69.16
74.58
80.21
85.52
89.74
91.71
90.74
86.41
79.01
69.44
58.88
48.57
39.73
32.97
28.60
26.85
27.54
30.36
34.98
41.04
48.28
56.59
65.46
74.61
83.98
93.55
103.31
113.29
123.54
134.12
145.18
156.09
166.33
175.42
182.73
187.62
189.30
186.64
177.89
166.01
151.98
136.61
120.65
104.78
89.63
75.84
63.99
54.69
48.58
45.36
44.54
45.22
46.14
45.88
43.12
37.04
27.52
15.25
1.03
-13.99
-28.63
-41.96
-53.36
-62.41
-68.56
-71.13
-69.34
-62.99
-52.48
-39.16
-25.33
-13.79
-7.16
-7.07
-13.83
-26.49
-43.46
-63.06
-84.16
-106.52
-130.81
-158.23
-189.94
-226.28
-265.71
-304.31
-335.82
-352.94
-349.55
-323.03
-275.71
-215.07
-150.91
-92.14
-44.26
-8.61
17.11
37.23
56.19
76.63
97.97
117.34
130.84
135.01
127.96
110.23
84.73
55.88
28.14
3.33
-17.77
-34.44
-45.77
-51.10
-50.28
-43.71
-32.46
-18.44
-8.22
-6.76
-14.95
-30.13
-48.90
-68.51
-86.90
-102.72
-115.48
-133.95
-164.02
-204.42
-248.78
-291.91
-332.43
-371.10
-408.10
-440.84
-476.82
-516.21
-549.38
-564.40
-558.41
-539.92
-522.19
-515.09
-520.93
-552.25
-611.04
-685.79
-759.39
-821.85
-873.29
-918.62
-962.20
-897.07
-682.18
-365.24
-42.79
217.11
397.32
510.41
577.17
616.37
641.07
641.50
612.05
561.53
509.79
474.39
463.28
475.20
502.81
536.15
552.83
540.10
501.69
452.66
406.95
370.97
344.90
326.36
313.11
295.89
270.07
238.40
207.67
182.49
163.21
147.85
134.63
122.93
109.09
91.57
72.13
54.26
40.18
29.79
21.96
15.58
10.15
4.34
-2.43
-9.42
-15.44
-19.88
-23.13
-25.85
-28.91
-32.23
-35.26
-37.09
-36.54
-32.74
-25.43
-15.25
-3.47
7.92
17.00
22.49
24.15
22.98
20.76
19.30
19.76
22.53
26.76
31.35
35.53
39.40
44.04
50.96
61.50
75.11
92.38
112.42
132.48
148.00
153.41
144.19
119.26
82.46
41.48
5.81
-17.74
-27.27
-25.61
-18.41
-11.35
-8.29
-9.85
-15.37
-22.39
-28.05
-29.68
-25.75
-16.85
-5.86
3.00
6.33
2.76
-6.08
-17.00
-26.46
-32.22
-33.67
-31.39
-26.32
-19.39
-11.81
-5.19
-1.81
-3.34
-10.42
-22.46
-37.59
-53.36
-67.48
-78.48
-85.26
-87.41
-84.03
-73.93
-56.03
-29.65
4.42
44.10
86.02
125.77
157.70
177.26
182.57
176.03
164.16
155.46
157.08
171.33
197.04
224.69
243.95
246.40
228.21
190.84
140.42
85.73
35.44
-4.04
-29.98
-42.41
-44.11
-38.79
-30.04
-20.40
-11.85
-6.20
-5.16
-10.28
-21.94
-41.15
-65.52
-93.05
-121.25
-147.74
-170.69
-188.74
-201.02
-206.72
-207.03
-203.61
-197.90
-189.98
-179.17
-165.16
-148.27
-129.51
-110.24
-94.04
-84.26
-83.06
-90.86
-107.45
-132.92
-166.81
-206.50
-233.56
-231.83
-196.06
-135.83
-68.42
-9.38
32.18
54.42
61.45
59.86
53.44
42.96
28.06
9.18
-11.67
-31.52
-47.51
-57.32
-60.43
-60.52
-61.51
-65.49
-72.10
-79.21
-84.44
-86.25
-82.91
-74.25
-62.90
-54.27
-51.22
-54.22
-61.63
-71.40
-81.45
-87.26
-85.28
-74.53
-62.42
-52.30
-44.88
-38.22
-30.16
-18.12
4.72
43.70
99.82
164.36
231.64
297.57
360.37
417.62
467.52
514.67
563.43
615.55
663.57
706.74
747.46
789.83
833.45
840.75
787.35
672.83
562.22
476.91
423.47
387.87
363.96
343.98
319.69
290.02
255.99
218.60
170.91
112.57
46.50
-21.33
-86.52
-145.41
-190.82
-217.81
-226.12
-225.76
-224.28
-227.45
-237.82
-257.08
-284.45
-313.87
-338.05
-350.81
-352.32
-342.56
-322.76
-294.87
-262.78
-230.60
-200.66
-175.18
-156.73
-149.49
-154.56
-169.62
-189.24
-207.84
-221.85
-230.88
-238.19
-248.72
-267.06
-294.60
-330.06
-370.96
-415.60
-462.47
-508.78
-549.27
-576.74
-584.69
-570.06
-535.03
-486.58
-434.50
-388.57
-355.89
-338.89
-334.22
-333.52
-325.71
-300.84
-253.76
-186.19
-105.81
-22.57
55.42
124.50
185.37
240.61
292.11
339.80
381.55
414.30
434.78
440.04
428.41
400.35
359.61
313.21
270.62
241.12
230.73
239.93
262.91
289.32
307.62
309.07
290.07
252.90
204.07
151.47
101.90
59.25
24.55
-2.97
-24.51
-41.16
-53.95
-64.43
-74.81
-87.53
-104.58
-126.82
-154.14
-185.76
-221.45
-261.67
-306.62
-354.32
-399.56
-434.72
-452.17
-447.28
-419.42
-372.88
-315.26
-254.74
-197.54
-146.75
-103.31
-67.47
-39.70
-18.71
-3.11
8.00
14.52
15.84
11.64
2.05
-12.24
-29.99
-45.82
-54.09
-51.15
-36.34
-10.91
23.77
66.51
116.28
171.65
235.43
309.53
392.42
478.70
561.42
635.41
697.57
746.71
759.40
721.07
633.26
514.83
389.69
274.28
175.98
95.42
33.09
-17.00
-53.98
-75.19
-80.31
-72.90
-59.65
-47.61
-43.28
-52.38
-77.33
-109.77
-135.58
-141.05
-119.03
-77.24
-25.36
26.37
69.62
98.93
112.67
110.28
89.79
49.46
-11.21
-89.22
-179.75
-276.50
-372.42
-459.54
-530.89
-581.87
-607.08
-600.85
-558.60
-481.01
-375.27
-253.97
-131.64
-16.42
75.25
130.30
146.57
132.91
100.74
58.60
11.70
-36.40
-82.45
-124.50
-160.06
-188.89
-210.45
-226.16
-238.18
-247.78
-254.60
-256.61
-251.93
-237.82
-212.37
-173.63
-121.65
-59.08
10.03
81.58
152.12
218.53
279.34
334.35
386.93
440.23
495.74
552.13
604.32
644.64
665.09
660.82
631.65
584.74
528.61
470.61
415.93
368.23
331.63
310.48
307.73
304.26
284.36
237.22
161.99
67.34
-34.28
-130.80
-214.51
-283.11
-338.47
-381.22
-412.38
-433.06
-442.97
-441.74
-427.91
-400.92
-362.19
-314.36
-258.67
-196.44
-129.03
-59.63
7.04
68.38
123.05
170.78
211.86
247.06
275.16
292.61
294.99
268.60
210.18
129.23
45.26
-21.23
-57.35
-59.53
-35.33
6.02
55.28
105.45
150.02
179.10
185.90
169.20
134.54
92.34
54.54
29.74
21.43
26.27
35.99
41.50
36.26
18.46
-9.69
-43.26
-77.62
-109.04
-135.93
-158.33
-176.98
-192.75
-205.91
-216.44
-223.67
-227.23
-226.94
-222.94
-215.80
-206.92
-198.92
-195.28
-200.03
-215.54
-240.99
-271.38
-297.48
-309.19
-300.18
-271.33
-230.76
-190.57
-160.61
-145.09
-141.80
-143.30
-141.15
-129.94
-108.43
-78.32
-42.56
-2.98
39.86
78.83
104.14
108.79
91.92
58.17
17.22
-25.63
-65.62
-98.78
-122.65
-135.29
-135.72
-124.83
-105.28
-80.71
-54.84
-29.72
-6.18
15.57
36.21
56.59
76.92
96.56
114.28
128.94
140.79
151.22
162.29
176.56
196.06
221.30
250.91
281.91
310.46
333.36
348.43
354.70
352.79
344.94
334.62
325.90
321.87
323.08
326.62
326.46
315.81
290.53
251.65
205.42
160.90
126.02
104.55
95.02
92.18
89.93
83.51
70.40
49.72
21.48
-13.79
-54.60
-98.45
-142.35
-184.11
-223.24
-260.90
-298.67
-336.53
-371.55
-398.03
-409.28
-400.17
-369.39
-320.34
-260.45
-199.35
-146.53
-109.26
-91.34
-92.82
-110.62
-139.54
-173.52
-206.17
-231.21
-243.02
-237.53
-213.44
-173.08
-122.07
-67.38
-15.03
31.81
72.59
108.16
138.64
162.79
178.84
186.27
187.04
184.96
183.85
185.28
188.08
189.59
187.67
182.35
175.40
168.84
163.13
156.80
147.46
133.86
117.01
99.85
85.74
76.54
71.90
69.72
67.48
63.50
57.21
48.86
38.80
27.47
15.45
3.80
-6.10
-12.98
-16.44
-17.26
-17.11
-17.87
-20.72
-25.84
-32.46
-39.50
-45.91
-50.65
-52.73
-51.15
-45.41
-36.01
-24.74
-14.16
-6.75
-4.04
-6.13
-12.07
-20.54
-30.53
-41.70
-53.91
-66.81
-79.38
-90.00
-96.91
-98.56
-93.83
-82.24
-63.97
-40.10
-12.89
14.39
37.91
54.25
61.15
58.19
46.73
29.27
8.77
-12.08
-31.03
-46.12
-55.86
-59.35
-56.48
-48.49
-37.87
-27.59
-20.33
-17.57
-19.29
-24.61
-32.33
-41.13
-49.16
-53.56
-50.72
-37.87
-15.30
12.67
38.15
52.63
50.58
31.57
-0.44
-39.80
-82.33
-126.27
-170.62
-212.58
-246.17
-263.68
-259.20
-232.17
-188.56
-138.48
-91.96
-54.86
-27.57
-6.45
12.98
33.22
53.98
73.16
88.80
100.46
109.33
117.26
125.80
135.90
147.65
160.90
174.95
187.79
195.68
193.45
175.79
139.20
83.80
13.44
-65.26
-144.17
-215.14
-270.65
-304.70
-313.92
-298.86
-264.53
-220.03
-176.42
-143.42
-126.27
-123.76
-128.69
-130.29
-117.96
-84.62
-29.00
44.13
125.32
202.69
264.93
303.91
316.50
305.09
276.45
239.42
202.55
171.88
149.67
135.36
127.27
124.41
126.80
134.05
143.96
152.21
153.94
145.99
128.79
106.07
82.58
61.35
42.41
23.67
3.01
-19.41
-41.04
-58.26
-68.14
-70.02
-65.70
-58.31
-50.76
-44.66
-39.95
-35.53
-30.26
-23.60
-16.37
-10.61
-8.89
-13.18
-24.19
-40.45
-58.96
-76.34
-88.71
-93.29
-88.92
-76.28
-57.60
-37.08
-18.55
-5.68
-1.20
-3.90
-9.88
-13.61
-9.82
4.55
27.93
57.15
86.70
109.87
124.08
129.34
126.84
117.80
103.32
83.48
63.43
50.28
50.32
71.18
117.00
186.49
273.36
368.83
461.95
548.31
626.45
669.80
657.38
581.44
453.29
297.14
155.91
35.16
-67.86
-155.69
-228.55
-283.30
-312.91
-313.55
-288.25
-247.56
-209.61
-188.56
-191.63
-216.21
-248.12
-269.41
-268.11
-242.36
-199.23
-152.48
-111.38
-79.98
-58.32
-43.66
-33.54
-27.68
-25.36
-24.47
-23.95
-22.37
-20.47
-21.94
-31.80
-52.78
-85.49
-124.81
-159.09
-176.64
-170.09
-139.96
-93.41
-46.29
-3.78
32.79
63.98
90.11
110.54
122.55
123.57
112.47
86.80
45.00
-14.05
-88.46
-173.84
-264.66
-355.25
-439.84
-496.24
-506.11
-462.91
-377.19
-268.48
-155.45
-50.05
42.35
120.62
185.25
237.76
276.53
298.33
303.22
293.69
273.87
247.79
214.12
175.53
133.69
89.83
44.14
-0.96
-43.13
-80.60
-112.42
-137.04
-150.76
-150.57
-135.57
-114.78
-93.26
-78.59
-78.25
-95.72
-127.70
-164.38
-194.74
-202.94
-185.63
-147.66
-99.21
-49.61
-4.07
36.21
72.11
103.83
129.96
148.22
158.53
163.03
165.40
169.05
175.48
184.09
193.45
199.87
199.47
189.81
170.95
145.01
114.63
82.59
51.87
25.60
6.77
-2.71
-3.39
3.24
14.59
26.22
33.25
31.89
20.07
-3.28
-35.06
-74.93
-119.86
-170.26
-222.74
-272.34
-315.24
-350.95
-383.53
-409.65
-432.25
-452.73
-454.79
-427.38
-369.71
-293.00
-213.69
-143.30
-83.27
-28.94
27.11
88.43
150.20
203.14
239.26
255.99
257.52
252.41
247.48
246.70
250.30
254.63
259.94
264.44
268.48
273.32
279.32
284.02
284.24
277.35
261.31
230.08
189.25
145.40
103.40
65.91
33.15
4.84
-19.10
-38.76
-53.64
-62.69
-66.35
-66.68
-65.01
-61.77
-56.69
-49.80
-43.12
-39.75
-41.78
-50.18
-63.58
-78.14
-89.27
-94.50
-94.28
-91.15
-86.88
-80.00
-68.19
-50.71
-30.65
-14.76
-11.85
-28.44
-64.94
-116.15
-167.47
-201.52
-206.42
-182.50
-139.97
-91.89
-46.12
-4.28
34.94
72.72
107.13
134.42
151.31
159.40
161.11
160.40
160.24
160.89
160.02
152.83
133.90
97.64
46.78
-11.36
-66.01
-106.02
-122.86
-113.29
-80.92
-35.41
10.82
46.73
64.79
63.28
45.91
20.04
-5.87
-25.23
-35.70
-39.12
-39.80
-42.58
-49.84
-60.70
-72.10
-81.00
-86.40
-90.02
-94.69
-101.96
-111.17
-119.46
-123.32
-120.32
-111.74
-98.42
-82.95
-68.04
-55.32
-45.11
-36.74
-29.37
-22.71
-17.16
-12.93
-9.54
-4.97
3.83
19.20
41.06
66.26
89.24
104.23
107.72
99.40
82.34
61.42
41.31
24.91
13.03
4.86
-1.13
-6.16
-11.26
-16.99
-23.52
-30.68
-37.94
-44.27
-48.29
-48.69
-44.50
-35.97
-24.77
-13.68
-5.71
-3.18
-6.73
-15.20
-26.30
-37.66
-47.92
-57.03
-65.84
-75.13
-85.03
-95.01
-104.56
-113.70
-123.03
-132.80
-141.78
-146.94
-144.52
-132.12
-110.45
-83.83
-58.56
-40.48
-32.55
-33.90
-40.94
-49.61
-57.51
-64.75
-73.39
-85.54
-101.79
-120.58
-138.55
-151.71
-156.80
-152.01
-136.86
-112.10
-79.61
-42.59
-5.33
27.84
54.25
74.38
91.64
110.68
134.45
162.09
188.89
208.52
216.45
212.53
201.56
190.82
186.47
190.14
197.77
201.22
191.56
162.60
113.12
47.72
-24.61
-93.21
-148.72
-185.59
-202.93
-204.10
-194.61
-180.21
-164.75
-149.34
-132.82
-112.79
-86.84
-53.00
-9.98
43.13
106.24
177.64
253.41
327.60
393.99
447.79
486.86
511.27
521.63
517.64
498.00
461.97
411.23
350.86
287.81
228.25
175.08
127.42
82.42
37.93
-5.52
-44.93
-76.33
-97.20
-107.56
-109.31
-104.99
-96.40
-84.59
-70.44
-55.65
-42.60
-33.72
-30.55
-33.01
-39.64
-48.12
-56.20
-62.27
-65.85
-67.27
-67.51
-67.83
-69.15
-71.94
-75.84
-79.79
-82.27
-81.92
-77.95
-70.47
-60.18
-47.85
-34.06
-19.14
-3.62
11.59
25.35
36.83
45.90
52.99
58.86
63.48
65.78
63.74
55.10
38.07
11.76
-23.48
-65.59
-109.84
-148.74
-172.86
-173.63
-146.63
-94.10
-25.32
45.96
105.26
141.36
148.63
127.74
84.54
28.19
-31.25
-85.37
-129.47
-163.68
-191.83
-218.74
-246.34
-271.58
-287.31
-285.82
-263.41
-223.07
-173.95
-127.54
-92.85
-72.69
-63.39
-57.51
-48.12
-32.16
-11.42
8.77
22.40
25.48
17.60
1.86
-16.58
-32.38
-41.49
-41.67
-32.22
-13.33
14.09
48.23
86.00
123.04
154.34
174.98
181.38
171.81
146.89
109.42
64.43
18.90
-19.16
-42.31
-46.19
-31.13
-2.24
32.66
66.33
95.10
119.54
142.92
168.28
195.88
222.75
244.35
257.13
260.62
257.68
252.83
249.86
250.17
252.77
255.32
255.82
253.45
248.89
243.66
239.22
236.10
233.74
230.96
226.48
219.61
209.88
197.08
181.04
161.48
138.03
110.74
81.09
52.16
28.05
11.75
3.82
2.32
3.66
4.11
1.14
-5.86
-16.53
-31.04
-52.06
-83.89
-129.88
-190.17
-260.84
-335.07
-405.09
-462.80
-497.86
-503.54
-481.03
-438.37
-385.58
-329.75
-274.30
-220.17
-168.02
-119.08
-76.31
-43.14
-20.87
-8.15
-1.12
4.76
14.38
29.01
47.35
65.22
77.14
79.22
69.68
49.30
20.22
-14.21
-49.76
-78.78
-94.59
-94.48
-79.94
-57.32
-34.85
-20.07
-16.86
-24.34
-37.66
-51.25
-62.85
-70.39
-77.29
-86.59
-100.79
-120.45
-143.23
-164.09
-174.07
-168.66
-147.34
-114.17
-75.63
-38.18
-5.89
20.04
40.54
56.65
68.06
74.42
75.75
73.33
69.63
67.41
68.80
74.74
84.71
96.75
108.60
119.00
125.94
128.12
124.86
115.63
99.79
76.46
44.97
6.03
-35.29
-72.04
-96.72
-104.31
-94.71
-73.10
-47.92
-27.37
-16.12
-14.29
-19.01
-26.45
-33.99
-41.14
-48.57
-56.87
-65.70
-73.63
-79.10
-81.35
-80.64
-76.75
-69.84
-59.80
-46.46
-30.05
-11.20
9.17
29.83
49.84
68.72
86.16
102.05
116.12
127.56
135.48
139.14
138.14
132.50
122.69
109.19
92.92
75.24
57.34
39.64
21.29
-0.13
-27.48
-62.02
-101.77
-140.82
-169.30
-179.59
-169.30
-141.83
-104.64
-65.99
-31.68
-4.23
16.79
32.69
43.99
50.68
53.24
53.28
53.18
55.55
61.85
72.13
84.47
95.89
102.17
100.25
88.93
68.89
42.20
11.36
-20.54
-50.95
-78.06
-100.61
-117.38
-126.87
-127.85
-117.54
-97.35
-69.16
-35.72
-0.33
33.67
63.63
88.32
107.78
122.24
131.46
135.49
133.61
124.21
105.64
77.00
39.04
-4.38
-48.69
-89.96
-124.53
-150.99
-170.25
-184.50
-198.69
-213.76
-230.22
-247.61
-264.17
-275.45
-275.98
-260.79
-227.35
-176.92
-114.07
-46.27
19.89
76.15
119.76
152.03
176.04
194.30
207.51
214.85
213.76
202.05
178.65
145.81
108.39
72.76
44.41
25.79
16.50
14.31
18.16
29.31
50.04
81.00
118.54
154.51
178.90
184.35
166.73
132.36
90.40
49.77
15.69
-10.99
-32.17
-50.18
-65.93
-78.79
-87.03
-90.42
-90.03
-88.20
-87.85
-91.10
-98.89
-110.60
-124.38
-137.37
-147.94
-154.45
-156.22
-152.95
-144.61
-131.20
-112.44
-88.23
-58.66
-24.91
10.66
45.17
76.19
101.74
120.77
133.69
141.85
147.26
151.63
157.25
163.03
167.68
169.40
167.01
160.23
149.72
136.92
123.43
110.73
99.85
91.69
86.03
81.55
75.24
62.82
40.55
7.27
-34.52
-78.97
-118.74
-148.35
-165.50
-171.60
-170.40
-165.55
-158.96
-150.98
-141.23
-127.98
-113.23
-98.84
-85.71
-73.71
-61.61
-48.08
-32.76
-16.47
-1.05
11.21
19.18
23.28
25.11
27.29
32.19
40.78
52.69
66.23
78.97
89.22
96.66
101.09
102.78
101.96
98.05
89.98
76.55
56.87
30.71
-0.51
-34.83
-68.69
-97.01
-113.93
-114.75
-98.21
-67.88
-31.22
2.80
27.15
39.56
42.55
41.21
40.26
41.71
44.71
47.21
47.75
46.38
44.74
44.72
47.22
51.88
57.77
64.01
70.35
76.35
80.41
79.66
70.87
52.14
24.66
-7.06
-36.73
-58.71
-70.38
-72.67
-68.81
-62.40
-55.73
-49.44
-43.36
-37.55
-32.68
-29.75
-29.17
-30.38
-31.98
-32.54
-31.06
-27.70
-23.48
-19.77
-17.75
-17.77
-19.42
-21.67
-23.41
-23.90
-23.09
-21.58
-20.25
-19.95
-21.00
-23.32
-26.39
-29.44
-31.90
-33.59
-34.77
-35.98
-37.88
-40.93
-45.44
-51.45
-58.60
-66.41
-74.37
-82.03
-88.97
-95.44
-100.53
-103.36
-103.07
-98.69
-89.58
-75.62
-57.54
-36.92
-15.97
3.03
18.18
28.51
34.28
36.75
37.42
37.56
37.64
37.45
36.42
33.87
29.51
23.67
17.20
11.17
6.93
5.39
6.64
9.47
11.14
8.37
-1.21
-17.62
-38.50
-59.49
-76.20
-85.70
-87.59
-83.79
-77.65
-72.38
-70.10
-71.23
-73.93
-74.89
-70.12
-57.44
-38.36
-18.45
-5.30
-5.89
-24.03
-58.61
-104.77
-155.07
-203.22
-245.24
-279.04
-303.20
-316.03
-316.00
-301.31
-271.57
-226.12
-166.02
-94.95
-17.51
62.29
141.63
218.18
291.74
362.14
431.02
498.34
562.10
618.71
663.98
693.92
704.20
693.28
644.81
551.78
416.96
252.65
76.08
-96.04
-244.40
-366.83
-464.25
-538.02
-587.25
-612.26
-614.19
-596.27
-563.34
-520.52
-473.47
-425.08
-377.18
-328.97
-279.90
-229.98
-179.80
-129.98
-80.72
-32.52
15.53
63.98
113.52
163.21
210.73
252.87
286.68
310.65
324.22
328.83
326.24
318.38
306.31
290.55
271.65
250.93
231.32
215.54
205.80
202.40
203.78
207.06
209.24
208.32
203.81
198.13
194.40
195.84
205.21
224.55
254.47
293.23
335.96
374.87
402.98
414.77
408.36
386.22
354.10
318.59
284.72
255.17
218.27
167.13
100.24
22.79
-55.46
-124.73
-179.33
-218.61
-245.07
-262.38
-271.82
-273.98
-269.44
-259.53
-246.19
-231.90
-218.97
-208.88
-202.31
-197.53
-192.45
-185.22
-174.96
-161.30
-144.73
-126.58
-108.33
-91.67
-77.14
-65.16
-54.90
-48.32
-48.15
-57.50
-78.40
-109.88
-147.48
-183.35
-209.61
-220.91
-216.31
-198.24
-170.46
-136.04
-96.84
-55.02
-14.88
16.39
32.32
30.48
14.80
-5.90
-21.83
-26.92
-21.28
-9.28
2.78
10.55
12.85
11.33
9.15
10.28
18.86
38.03
70.08
111.57
155.70
193.74
217.49
222.08
207.13
176.26
132.05
82.63
33.28
-12.73
-53.42
-87.36
-113.27
-131.19
-141.75
-145.86
-143.94
-137.03
-125.02
-106.99
-82.08
-50.95
-17.00
13.53
33.48
38.92
30.24
13.06
-4.33
-14.58
-14.49
-5.77
6.94
19.02
28.26
34.68
39.79
44.92
50.49
56.06
60.92
65.11
69.56
75.40
83.12
92.78
102.11
108.36
108.80
101.30
84.97
60.41
29.34
-6.12
-43.00
-79.26
-113.53
-145.10
-174.86
-202.08
-225.18
-242.08
-250.17
-247.25
-232.43
-205.87
-169.30
-123.91
-75.07
-27.37
15.09
49.07
72.95
86.14
90.59
90.39
90.28
93.43
99.94
105.37
104.55
93.23
70.61
40.26
7.85
-21.81
-46.77
-67.81
-87.19
-106.19
-124.20
-139.52
-148.50
-148.68
-139.59
-122.70
-100.38
-75.00
-47.61
-18.45
12.64
45.13
77.58
107.63
132.64
151.16
162.83
168.30
167.58
159.54
142.39
115.33
80.02
41.15
5.30
-22.30
-39.43
-47.58
-49.62
-47.07
-38.49
-20.61
8.53
47.74
90.12
126.52
148.86
153.24
140.86
116.50
85.85
51.49
16.35
-19.38
-55.31
-89.51
-118.36
-138.17
-146.09
-141.60
-126.50
-103.85
-77.75
-51.16
-25.57
-1.11
22.45
44.98
65.22
81.01
90.08
90.31
81.41
65.36
45.85
27.06
12.59
4.38
2.10
3.84
6.79
9.01
10.13
11.14
13.15
16.65
21.06
23.34
22.07
15.99
3.65
-16.94
-46.88
-86.70
-132.95
-177.57
-209.81
-220.23
-204.45
-164.75
-109.07
-46.49
15.53
70.89
118.41
162.07
202.77
238.46
265.52
280.52
283.24
275.03
258.90
238.29
216.07
193.04
167.91
138.11
101.63
59.96
15.67
-28.52
-71.45
-112.52
-149.72
-180.79
-204.36
-228.64
-253.51
-276.01
-286.83
-282.20
-262.54
-231.44
-193.05
-151.11
-106.87
-57.17
1.09
68.08
138.10
201.27
246.27
264.49
250.81
205.88
137.46
55.94
-29.05
-111.64
-188.62
-257.80
-305.39
-318.44
-292.36
-233.49
-156.16
-74.79
0.05
63.18
113.65
153.94
187.11
213.04
230.41
237.47
232.73
215.01
184.18
138.21
82.43
23.78
-31.76
-80.01
-119.10
-148.86
-170.30
-184.92
-194.02
-198.25
-199.25
-198.29
-194.45
-184.50
-164.64
-133.29
-92.94
-49.47
-9.88
19.51
35.49
38.96
33.66
23.92
12.81
1.78
-8.08
-15.25
-18.64
-17.02
-10.69
-1.39
8.44
16.86
23.17
28.67
35.80
47.00
63.29
83.36
104.30
122.27
134.08
137.93
133.97
123.87
110.71
97.93
88.10
82.07
77.85
71.08
56.56
31.10
-5.88
-47.29
-81.47
-97.52
-90.07
-61.97
-22.04
19.24
54.55
81.42
99.58
108.53
107.30
95.20
73.14
44.90
14.92
-9.90
-26.25
-35.84
-43.36
-51.69
-60.55
-68.24
-73.16
-75.92
-79.72
-89.04
-103.41
-119.76
-130.83
-128.21
-108.02
-72.92
-30.69
9.56
41.83
65.28
82.78
98.30
115.81
133.29
146.03
149.43
140.86
119.94
87.73
45.58
-6.13
-61.56
-112.75
-151.01
-169.92
-167.98
-149.49
-123.15
-98.87
-83.51
-79.15
-84.40
-95.64
-109.15
-123.59
-137.11
-147.48
-152.13
-148.21
-133.55
-108.02
-72.94
-30.58
16.19
62.99
106.00
142.51
171.19
191.81
204.71
210.72
210.83
206.39
199.25
191.87
186.32
183.17
180.36
173.29
156.69
127.23
86.13
39.42
-4.21
-37.23
-56.24
-62.75
-61.46
-57.26
-53.00
-48.94
-44.15
-38.08
-31.68
-26.95
-25.52
-27.53
-31.36
-34.40
-33.96
-28.81
-19.40
-7.72
3.53
12.31
18.04
21.58
24.79
29.52
35.90
42.52
46.61
45.08
35.71
17.82
-7.58
-37.81
-68.59
-94.53
-110.18
-111.43
-97.41
-71.39
-40.07
-11.56
7.73
15.15
12.16
2.99
-7.43
-15.52
-19.64
-20.10
-18.68
-17.94
-20.24
-26.62
-35.92
-44.47
-47.99
-43.23
-29.47
-8.62
15.63
40.02
62.59
82.64
99.79
113.28
121.48
123.07
117.86
106.84
91.69
73.86
54.16
32.59
9.25
-15.39
-39.95
-62.49
-81.04
-94.28
-102.05
-105.21
-105.44
-105.01
-106.16
-110.48
-116.94
-122.48
-122.41
-112.27
-90.17
-58.16
-22.22
10.12
32.91
44.13
45.67
41.85
36.82
32.80
29.79
26.80
23.17
19.33
16.48
15.49
16.27
17.76
18.60
17.62
14.67
10.46
6.21
3.04
1.46
1.20
1.42
1.17
-0.22
-2.82
-6.24
-9.83
-13.07
-15.72
-17.82
-19.71
-21.88
-24.83
-28.97
-34.50
-41.50
-49.70
-58.41
-66.33
-71.75
-73.23
-69.46
-59.97
-45.58
-28.04
-9.67
7.44
21.77
32.67
40.05
44.27
45.85
45.01
42.29
38.35
34.60
32.84
35.08
42.78
56.71
76.66
100.62
124.69
142.82
148.09
134.81
101.63
53.41
0.04
-44.59
-69.82
-71.78
-54.32
-26.28
2.59
25.42
39.58
45.22
44.36
39.35
32.87
27.35
23.91
22.25
19.73
12.97
-0.57
-20.16
-42.12
-60.70
-71.29
-72.00
-65.12
-56.51
-51.51
-53.26
-60.97
-70.42
-75.27
-69.75
-50.96
-20.44
16.21
51.02
75.82
86.08
81.49
65.33
42.18
16.07
-10.56
-36.28
-60.20
-80.98
-96.85
-107.04
-112.12
-114.12
-115.65
-118.99
-123.57
-126.96
-125.22
-114.49
-92.47
-59.33
-17.58
28.77
75.29
118.66
156.28
186.65
208.94
222.55
226.76
220.83
204.35
175.87
138.28
95.21
50.44
7.28
-31.81
-65.34
-92.75
-113.94
-128.99
-137.06
-137.28
-129.10
-112.76
-89.71
-62.50
-34.34
-8.28
13.58
30.84
44.06
54.24
62.16
67.90
70.69
69.62
64.13
54.60
42.62
30.41
20.28
14.33
14.40
21.52
35.35
53.23
70.10
78.56
73.13
52.87
22.57
-8.69
-31.60
-40.52
-35.70
-22.39
-7.68
3.03
7.84
7.31
2.71
-5.55
-18.07
-35.63
-57.92
-82.76
-105.54
-121.03
-125.26
-116.67
-96.40
-67.79
-35.35
-3.36
24.94
47.55
63.06
70.12
68.20
58.59
44.99
32.80
26.64
29.51
39.83
52.07
59.69
58.46
47.97
31.28
12.88
-3.58
-16.38
-25.61
-32.22
-36.89
-39.95
-41.83
-43.43
-45.70
-49.02
-52.97
-56.24
-57.33
-55.49
-50.48
-43.00
-34.50
-26.34
-19.40
-13.82
-8.88
-3.26
4.93
17.34
34.16
53.13
69.43
77.09
70.91
50.46
20.61
-10.01
-32.72
-42.61
-39.88
-28.88
-15.06
-2.31
8.33
17.57
26.48
35.14
42.40
47.23
49.38
49.81
49.69
50.00
49.59
46.22
37.39
21.52
-1.00
-27.50
-53.66
-74.92
-87.26
-89.31
-82.02
-67.82
-49.56
-29.45
-8.66
11.99
31.99
49.61
61.90
65.81
58.65
38.83
6.24
-37.32
-87.25
-136.80
-178.14
-205.36
-214.33
-205.01
-181.59
-150.59
-117.87
-86.44
-56.02
-24.51
9.62
45.57
80.21
109.78
131.99
147.24
157.76
166.09
173.98
181.86
189.29
194.41
194.22
185.03
163.80
130.13
87.39
42.28
2.55
-25.74
-40.74
-44.88
-42.95
-39.48
-36.36
-33.09
-28.39
-21.88
-14.83
-9.67
-8.52
-11.93
-18.52
-25.43
-29.40
-28.40
-22.28
-12.57
-2.03
6.37
10.47
9.23
2.51
-9.53
-26.49
-46.96
-67.86
-84.40
-91.53
-86.13
-68.91
-44.53
-19.92
-1.18
8.99
11.47
9.55
6.63
4.34
2.22
-1.05
-6.29
-12.73
-18.57
-22.19
-23.10
-22.10
-20.78
-20.82
-22.76
-25.96
-28.38
-27.71
-22.20
-11.50
2.95
18.37
31.54
40.19
43.42
42.09
38.16
33.80
30.88
30.53
33.41
39.63
48.26
56.67
60.77
56.20
40.16
14.52
-14.94
-40.46
-55.82
-58.78
-51.79
-39.95
-28.28
-19.23
-12.06
-4.72
4.47
15.14
25.54
33.54
38.10
39.53
39.21
39.27
40.47
42.25
42.71
39.53
31.04
16.74
-2.50
-25.07
-49.17
-73.07
-94.10
-109.21
-114.80
-108.21
-89.44
-61.95
-32.05
-6.67
9.20
14.25
10.39
1.25
-9.85
-20.95
-31.05
-39.41
-44.89
-45.95
-41.32
-30.99
-16.39
0.15
16.39
30.97
43.78
55.64
67.49
79.60
90.92
99.40
102.80
100.07
92.25
82.26
73.62
68.50
66.21
62.88
53.12
32.36
-0.85
-43.49
-88.51
-126.55
-148.59
-148.42
-124.75
-81.86
-29.25
20.76
56.50
70.45
61.44
34.78
0.64
-29.58
-46.70
-46.59
-30.90
-5.94
19.94
39.07
46.91
43.64
33.31
21.93
14.24
11.55
11.89
11.86
9.24
4.88
3.29
10.17
29.35
59.24
92.28
117.48
124.56
108.02
67.13
7.97
-59.51
-121.41
-165.43
-185.77
-184.26
-167.54
-142.29
-112.63
-79.95
-45.41
-11.45
17.66
37.42
45.82
44.34
37.57
31.38
30.83
38.24
52.93
71.31
88.45
100.83
106.29
104.94
98.35
88.63
77.02
63.51
46.65
24.38
-4.37
-38.32
-74.92
-111.59
-146.01
-176.07
-199.04
-211.35
-209.36
-190.79
-157.07
-113.66
-68.97
-31.41
-6.51
4.85
5.72
0.74
-5.87
-12.21
-17.81
-22.80
-26.61
-28.12
-26.50
-22.01
-16.20
-11.47
-10.36
-14.20
-22.98
-35.46
-49.69
-63.82
-76.27
-86.17
-93.09
-97.19
-98.29
-96.26
-91.25
-83.58
-74.03
-63.68
-53.83
-45.48
-39.52
-35.75
-33.46
-31.61
-28.74
-23.49
-14.81
-1.99
15.77
36.16
59.09
85.48
116.26
150.55
184.28
210.32
220.60
209.11
174.34
120.48
55.56
-10.90
-69.85
-114.06
-138.76
-141.79
-124.24
-91.26
-51.57
-16.38
3.82
2.93
-18.35
-52.72
-88.92
-115.63
-125.23
-115.30
-88.68
-51.32
-9.62
31.47
69.04
101.75
129.02
150.40
165.96
176.65
184.28
191.15
199.33
209.94
223.02
238.16
255.09
274.50
297.74
325.96
358.43
391.50
418.68
432.43
426.74
399.03
351.20
289.31
222.38
160.15
110.69
78.43
63.22
60.78
63.54
63.00
52.38
28.71
-6.63
-48.75
-90.71
-125.11
-145.63
-149.73
-139.96
-123.55
-110.06
-108.19
-122.77
-153.37
-196.88
-244.39
-284.96
-310.42
-318.54
-311.88
-294.51
-269.70
-239.73
-207.04
-174.68
-146.40
-125.58
-113.60
-108.77
-107.08
-104.18
-96.87
-84.30
-67.64
-49.45
-32.76
-20.03
-12.38
-9.20
-8.80
-8.34
-4.08
7.57
28.14
55.63
83.60
104.87
113.80
108.74
92.51
70.64
48.75
30.15
15.33
3.25
-6.70
-14.14
-18.05
-17.93
-14.65
-10.33
-7.43
-7.83
-11.72
-17.34
-22.22
-24.22
-22.49
-17.81
-12.06
-7.16
-4.15
-2.50
-0.52
3.73
11.31
21.71
32.95
42.54
48.34
49.52
46.91
42.32
37.78
35.12
35.73
40.10
47.24
54.36
57.20
51.42
34.89
9.09
-19.62
-42.57
-52.41
-46.53
-27.66
-2.05
23.28
44.72
61.23
73.37
81.17
83.56
78.22
63.47
39.41
8.50
-25.16
-57.15
-84.25
-105.50
-121.79
-135.60
-148.94
-162.53
-175.31
-184.79
-188.62
-185.48
-176.08
-162.76
-149.35
-139.17
-134.86
-138.15
-149.63
-168.72
-192.89
-218.10
-234.84
-236.58
-221.04
-192.11
-158.54
-130.05
-114.42
-111.20
-115.81
-122.24
-126.27
-125.82
-120.87
-112.01
-99.03
-81.00
-56.77
-26.32
9.22
47.18
84.72
119.45
150.02
176.34
199.40
220.78
241.66
263.19
286.19
311.61
339.80
369.68
398.26
421.02
432.81
429.35
409.42
375.85
335.09
295.03
262.01
238.33
222.12
207.94
188.73
159.05
117.43
67.23
15.55
-28.85
-57.79
-64.81
-47.85
-10.48
38.33
86.16
120.35
131.45
115.69
70.33
1.74
-76.90
-150.37
-207.18
-242.50
-257.41
-256.03
-243.49
-224.97
-204.58
-186.07
-172.20
-163.80
-159.38
-156.03
-150.73
-142.13
-130.83
-118.15
-105.95
-96.00
-89.30
-85.18
-80.82
-71.77
-53.52
-23.16
18.79
67.90
116.55
156.70
182.74
193.20
190.43
178.26
160.23
138.48
114.17
88.19
62.09
38.46
20.40
10.32
8.88
14.33
22.56
27.89
24.63
9.12
-18.92
-54.07
-86.83
-107.66
-111.36
-98.90
-75.99
-49.50
-24.05
-0.50
22.59
47.01
72.90
98.72
122.29
142.07
158.36
172.17
184.71
195.47
202.84
204.37
197.75
182.08
158.56
130.44
102.21
78.57
62.65
56.19
59.23
70.36
87.39
107.93
129.54
149.52
169.45
187.97
203.02
212.38
214.06
206.81
190.38
165.39
133.13
95.36
53.49
9.44
-34.44
-75.74
-112.04
-141.07
-161.03
-170.81
-170.19
-160.38
-143.08
-120.32
-94.28
-66.96
-39.98
-14.46
9.10
30.68
50.32
68.43
85.44
101.70
117.19
131.54
144.10
153.97
160.18
161.66
157.76
148.19
133.20
113.55
89.95
63.52
36.62
11.37
-11.02
-29.66
-44.15
-54.70
-61.92
-67.22
-72.06
-76.68
-81.33
-86.40
-91.97
-97.70
-103.09
-107.58
-112.06
-117.33
-121.71
-124.44
-126.23
-127.75
-129.54
-131.96
-135.16
-142.63
-156.52
-171.30
-183.10
-191.78
-197.06
-198.91
-197.69
-194.35
-197.43
-213.46
-233.41
-251.54
-269.25
-286.75
-303.68
-319.65
-334.27
-358.73
-400.98
-444.54
-478.94
-505.82
-526.05
-540.14
-548.78
-552.59
-567.10
-603.62
-642.69
-674.03
-704.53
-739.72
-782.46
-831.93
-789.47
-599.25
-400.37
-251.20
-120.86
-3.76
103.10
201.69
291.88
372.43
426.09
440.32
436.17
430.28
426.33
429.40
442.29
461.47
480.90
482.50
453.12
406.28
351.90
289.76
221.63
150.21
75.38
-0.62
-81.12
-166.64
-243.90
-305.93
-355.29
-394.31
-423.36
-443.72
-450.89
-440.70
-409.25
-351.40
-271.18
-181.48
-95.73
0.83
105.49
205.54
284.34
332.29
350.70
345.95
325.19
295.94
265.15
231.31
196.33
163.79
137.84
120.83
114.37
119.25
136.07
165.74
205.62
249.77
291.60
325.86
348.30
357.92
355.80
344.67
328.58
309.09
288.18
268.00
256.45
251.21
249.32
247.55
243.43
236.04
224.01
206.83
184.79
158.67
128.24
94.45
58.74
18.49
-22.81
-60.00
-87.38
-100.17
-95.56
-73.88
-36.75
9.11
55.37
95.15
124.71
144.43
156.93
165.07
170.64
174.91
177.41
176.05
167.78
149.09
118.44
77.73
32.77
-8.80
-40.09
-58.37
-64.75
-62.50
-54.89
-43.07
-27.41
-8.72
10.64
26.72
34.48
30.88
16.33
-5.56
-29.65
-51.26
-67.90
-80.29
-91.44
-105.74
-125.24
-148.39
-173.75
-194.34
-204.38
-201.10
-185.32
-160.77
-134.16
-111.19
-95.59
-87.79
-85.61
-84.66
-78.76
-62.01
-25.42
25.98
77.49
110.16
109.93
72.87
7.83
-66.73
-129.85
-165.54
-168.30
-140.55
-95.66
-41.60
11.99
54.80
78.85
80.93
64.06
35.15
4.25
-19.53
-31.12
-30.60
-20.21
-1.68
23.60
55.07
88.13
117.43
138.51
148.10
145.19
133.32
120.28
114.99
123.77
146.96
178.87
208.61
220.41
199.12
137.46
39.30
-82.41
-211.28
-333.12
-438.17
-505.15
-517.03
-470.39
-377.96
-261.13
-139.71
-27.73
66.25
138.28
189.27
222.15
238.57
240.63
231.42
213.75
188.65
154.92
108.42
50.81
-13.99
-79.25
-135.16
-170.97
-179.20
-159.43
-118.96
-69.79
-23.49
10.93
29.92
35.69
33.74
29.10
24.28
19.50
14.64
10.66
8.34
7.90
8.94
10.52
11.33
10.06
6.30
0.78
-4.72
-8.78
-10.82
-11.15
-10.67
-10.70
-12.33
-16.02
-21.33
-27.17
-32.49
-36.66
-39.74
-42.19
-44.97
-48.89
-54.27
-60.72
-67.20
-72.30
-74.50
-73.25
-67.48
-57.08
-42.63
-25.18
-5.95
13.87
33.46
52.38
70.39
87.31
102.58
115.30
124.54
129.64
130.45
127.53
122.22
116.09
110.62
106.73
104.81
104.59
104.70
102.45
94.11
76.15
46.77
7.23
-37.58
-80.26
-113.07
-129.47
-127.36
-109.54
-81.65
-49.75
-18.80
8.03
29.18
43.72
50.43
48.11
36.25
15.09
-14.28
-50.48
-92.24
-138.81
-189.53
-242.70
-294.46
-338.18
-365.95
-371.17
-351.67
-310.87
-257.16
-200.96
-150.99
-111.83
-83.35
-62.16
-43.85
-25.90
-6.94
13.34
34.83
57.49
81.23
105.75
130.59
155.37
179.65
203.34
226.44
248.72
269.76
288.84
305.22
318.40
328.40
335.76
341.94
349.34
360.64
377.50
398.78
419.54
431.67
426.44
397.90
345.81
276.33
199.89
127.59
67.66
23.90
-3.76
-17.32
-19.52
-12.41
2.36
22.91
46.85
71.49
94.46
114.24
130.22
141.05
145.33
141.62
128.80
106.35
74.59
34.55
-11.99
-62.60
-116.83
-174.30
-234.30
-295.23
-354.74
-410.23
-459.78
-502.61
-538.82
-572.17
-606.65
-645.02
-687.47
-731.57
-773.19
-808.22
-833.80
-829.00
-779.79
-682.40
-546.79
-392.71
-240.52
-103.67
12.17
106.58
182.04
239.15
278.08
299.11
303.30
292.54
269.93
241.20
210.41
182.93
163.57
155.61
159.10
170.71
185.05
197.84
207.17
214.15
222.87
238.15
262.78
296.70
338.12
379.54
416.39
445.90
466.24
465.52
436.59
378.55
297.17
202.08
103.30
9.45
-73.52
-142.44
-195.71
-232.07
-252.47
-259.99
-260.98
-259.71
-257.64
-253.88
-245.85
-230.18
-202.51
-160.24
-103.13
-34.50
37.91
103.98
152.88
175.88
169.26
137.35
90.19
40.51
-1.34
-30.13
-46.40
-54.70
-60.42
-67.39
-75.80
-83.64
-87.25
-83.17
-68.66
-43.10
-8.98
28.46
62.50
88.50
104.72
112.65
115.29
115.40
113.77
109.45
103.42
94.88
85.89
79.25
76.60
77.17
78.34
76.58
68.91
55.00
36.84
18.64
4.21
-4.74
-8.98
-10.70
-12.08
-14.34
-17.13
-19.87
-22.74
-27.60
-37.21
-54.60
-76.93
-97.97
-112.07
-116.56
-113.31
-105.31
-94.75
-81.75
-64.60
-41.59
-13.28
15.73
39.37
53.12
56.75
54.72
54.31
62.41
78.08
98.56
115.76
120.41
107.18
78.05
41.69
9.32
-10.68
-16.00
-9.87
0.26
8.34
12.76
15.20
17.95
21.63
23.90
20.26
7.29
-17.52
-53.21
-95.65
-139.88
-181.00
-214.05
-233.99
-240.63
-230.44
-203.14
-161.19
-110.08
-56.46
-5.69
39.10
76.91
107.83
132.74
146.50
147.05
134.88
112.81
85.40
56.66
29.48
5.44
-13.82
-28.00
-36.63
-38.86
-34.28
-22.51
-4.50
18.93
47.21
79.66
113.58
144.30
165.72
168.52
147.46
101.64
35.92
-40.78
-118.03
-187.07
-240.99
-275.03
-286.10
-266.35
-216.90
-150.23
-85.98
-40.73
-21.42
-24.85
-42.75
-66.47
-89.94
-111.65
-131.75
-149.82
-164.19
-173.85
-178.05
-177.52
-174.11
-170.01
-167.52
-167.62
-169.75
-172.05
-172.68
-170.44
-165.08
-156.94
-145.99
-134.21
-122.14
-109.28
-94.37
-76.51
-55.62
-32.80
-9.86
11.01
27.62
38.88
44.66
46.10
44.65
41.74
38.23
34.34
29.79
24.04
17.28
10.55
5.69
4.63
8.76
18.51
33.15
50.81
69.10
86.02
100.46
112.51
122.86
132.77
143.82
158.33
178.21
203.65
231.90
257.31
273.06
274.08
260.28
237.56
217.18
209.99
221.77
250.95
290.26
330.80
365.90
393.21
414.08
433.45
454.85
479.67
507.86
539.43
574.62
612.63
649.62
678.10
691.27
682.59
649.02
592.65
520.08
440.24
361.46
289.32
208.18
111.57
1.88
-108.70
-204.26
-273.38
-312.95
-326.67
-321.54
-303.60
-276.85
-245.38
-212.52
-181.33
-155.14
-137.28
-130.77
-138.36
-162.48
-199.28
-247.53
-307.04
-373.85
-443.25
-510.39
-570.84
-621.05
-658.43
-680.00
-686.94
-681.62
-666.84
-645.31
-618.48
-585.84
-544.95
-493.08
-414.59
-306.82
-179.71
-51.73
59.07
142.77
199.03
233.08
250.83
257.25
253.63
242.38
227.98
217.73
218.81
234.97
264.48
299.41
329.17
342.66
334.45
306.57
266.74
223.98
185.01
152.27
122.44
90.32
50.97
3.56
-48.55
-99.98
-146.13
-184.85
-216.62
-245.33
-275.00
-308.56
-346.20
-385.69
-423.74
-457.38
-484.72
-492.43
-471.70
-420.01
-342.66
-250.47
-154.89
-64.16
17.87
90.52
154.51
208.59
250.29
277.57
290.23
291.23
284.92
275.41
265.70
257.05
247.38
231.98
205.94
166.20
112.54
47.48
-24.11
-95.66
-160.29
-203.62
-214.87
-190.73
-137.78
-70.91
-7.32
40.26
67.45
77.39
76.98
72.08
65.66
57.16
45.07
27.81
4.36
-25.23
-59.28
-94.14
-122.41
-137.71
-136.45
-119.19
-90.19
-55.35
-19.60
14.16
44.83
71.25
91.12
102.36
104.36
98.73
89.05
79.55
73.66
72.81
76.21
80.85
83.76
83.26
79.52
74.14
69.56
67.75
69.47
74.41
80.64
86.13
89.49
90.33
88.92
86.55
83.73
80.54
76.84
71.40
63.28
51.99
37.60
20.57
1.88
-17.67
-37.60
-56.23
-73.71
-89.94
-104.41
-116.50
-125.85
-132.02
-135.36
-138.66
-141.95
-146.04
-151.04
-155.78
-158.39
-157.18
-150.54
-138.17
-121.26
-101.38
-80.97
-61.77
-43.99
-25.17
-5.48
14.96
35.35
54.03
69.22
79.00
81.68
76.43
63.68
44.70
22.62
1.72
-13.79
-20.49
-18.93
-13.64
-11.04
-15.54
-28.28
-46.14
-63.66
-75.65
-78.48
-71.73
-57.87
-40.45
-21.98
-4.13
13.20
30.80
49.01
67.19
82.43
90.57
83.78
60.28
22.48
-24.12
-73.58
-121.86
-166.66
-207.52
-244.51
-276.92
-301.76
-316.54
-319.92
-312.23
-295.78
-272.91
-246.19
-217.86
-189.19
-160.24
-131.08
-101.35
-70.11
-40.97
-15.29
6.44
24.49
39.74
53.69
67.66
83.23
102.04
125.90
157.14
196.85
244.26
296.80
350.71
401.53
445.33
479.30
502.08
514.43
518.26
516.35
512.08
508.39
506.32
504.24
497.91
482.15
453.64
412.35
361.98
308.45
257.24
211.44
171.19
134.31
98.10
60.59
20.26
-24.41
-75.52
-135.88
-208.21
-293.76
-390.89
-494.04
-593.63
-678.10
-736.93
-764.16
-760.44
-732.69
-691.23
-645.98
-603.46
-565.83
-532.38
-501.66
-473.22
-447.55
-425.03
-404.65
-383.79
-359.15
-328.19
-290.46
-247.61
-202.92
-159.68
-120.02
-84.27
-51.27
-19.34
12.78
45.12
76.53
105.36
130.46
151.83
170.84
189.64
210.11
233.18
258.33
284.07
308.52
330.30
348.83
364.40
378.02
391.30
406.70
427.10
454.91
490.24
529.54
565.42
588.65
591.44
570.61
529.03
474.47
416.36
362.49
316.75
278.84
245.91
214.26
180.43
141.59
95.35
40.61
-21.24
-85.31
-143.46
-186.05
-204.78
-195.89
-162.14
-112.90
-61.76
-23.01
-7.60
-20.53
-60.25
-120.37
-192.79
-270.33
-347.75
-420.87
-484.95
-533.81
-560.95
-561.99
-537.48
-493.15
-438.36
-382.73
-332.94
-291.96
-259.38
-233.61
-213.45
-198.23
-186.65
-176.32
-163.99
-146.66
-123.36
-94.90
-63.69
-32.56
-3.39
24.00
51.09
79.97
112.50
149.03
188.61
227.16
256.89
268.13
254.93
217.42
163.82
108.56
65.75
46.59
53.73
80.54
115.67
152.41
188.46
225.65
266.71
309.62
354.07
398.95
441.54
478.68
512.29
543.21
570.92
593.80
606.37
612.30
619.53
634.87
662.33
707.90
771.03
844.45
914.64
960.08
971.98
951.84
907.81
803.02
621.35
369.80
81.47
-159.01
-332.85
-441.25
-489.58
-494.89
-467.34
-411.23
-334.42
-248.19
-168.94
-120.48
-113.80
-149.50
-220.63
-313.48
-407.40
-490.65
-549.26
-575.73
-576.60
-558.91
-529.42
-493.48
-453.33
-407.90
-357.44
-302.78
-249.24
-207.53
-183.44
-178.71
-192.71
-222.49
-263.00
-305.68
-338.69
-352.15
-342.74
-312.05
-267.79
-221.97
-181.34
-152.03
-133.31
-117.07
-94.68
-63.39
-26.25
10.68
42.66
68.58
88.62
104.43
117.30
126.78
130.92
128.52
120.52
110.06
100.98
94.05
88.76
84.02
78.32
69.99
57.52
39.56
17.47
-7.95
-39.14
-78.68
-127.36
-183.67
-244.39
-305.64
-363.64
-414.68
-439.14
-423.94
-367.97
-282.71
-185.23
-89.58
-3.92
68.19
125.88
168.46
196.30
208.90
207.36
194.73
174.86
150.32
121.48
87.86
51.16
12.03
-29.44
-72.28
-113.33
-146.85
-165.73
-163.79
-138.26
-92.17
-35.57
18.42
59.23
82.83
91.55
91.54
88.81
86.77
85.80
84.22
80.83
76.31
72.19
69.04
65.40
58.99
48.90
36.91
26.66
21.89
24.42
33.02
44.23
54.04
60.34
63.49
65.08
65.61
63.03
53.35
32.68
0.16
-41.18
-84.86
-123.34
-150.92
-166.27
-172.48
-174.26
-175.96
-175.70
-169.30
-152.87
-126.73
-96.59
-70.98
-56.05
-51.12
-48.27
-37.09
-12.61
20.50
49.72
62.10
52.44
26.94
-0.48
-16.48
-15.85
-3.67
9.41
14.34
9.02
-1.36
-8.42
-6.41
4.68
20.06
33.85
42.87
48.16
53.47
62.67
76.95
93.67
107.47
112.99
107.80
93.88
76.94
63.91
59.99
67.07
82.85
102.35
119.80
130.46
132.04
125.55
115.42
106.29
104.03
112.45
130.80
152.65
167.69
165.83
141.97
99.22
48.79
6.63
-12.86
-2.13
36.58
92.30
149.44
193.22
214.21
210.48
186.79
150.87
110.12
69.50
31.52
-2.03
-29.31
-48.46
-58.96
-62.81
-64.87
-71.10
-86.18
-111.38
-144.06
-178.95
-210.25
-234.03
-249.30
-258.40
-265.88
-277.25
-297.11
-327.36
-365.84
-406.06
-438.59
-454.00
-446.34
-415.19
-365.93
-307.40
-248.51
-195.30
-149.82
-110.79
-75.76
-43.05
-11.65
19.32
52.03
89.76
135.17
187.89
242.77
290.35
320.32
326.50
310.42
281.04
250.51
228.21
216.69
211.36
203.49
185.31
153.70
111.02
62.87
14.50
-30.87
-71.91
-105.16
-126.17
-130.90
-118.14
-90.40
-52.78
-11.35
28.81
64.43
93.37
114.36
126.58
128.32
118.34
96.05
60.95
14.01
-41.20
-98.61
-151.35
-191.07
-212.48
-214.97
-198.68
-170.10
-138.00
-108.18
-81.11
-53.96
-24.66
4.89
30.58
49.06
59.31
63.85
67.23
72.37
78.32
82.58
80.13
67.61
44.52
12.24
-25.92
-64.31
-96.29
-115.54
-117.47
-100.40
-65.16
-14.64
46.40
108.94
165.84
213.99
252.71
280.35
292.50
284.07
253.03
203.03
143.55
87.47
45.33
21.20
12.30
11.84
13.65
14.83
16.37
19.37
24.06
28.19
27.39
16.83
-6.45
-42.20
-85.84
-128.62
-160.94
-174.61
-166.26
-139.03
-101.93
-65.77
-39.38
-26.17
-24.02
-27.94
-32.64
-35.01
-34.02
-30.92
-25.92
-19.64
-13.57
-10.47
-13.27
-22.89
-37.05
-49.35
-53.75
-46.15
-27.17
-1.39
24.84
46.03
59.89
65.76
64.37
56.58
44.17
28.86
12.43
-3.52
-18.17
-31.72
-45.92
-62.68
-82.72
-103.10
-117.99
-120.48
-105.22
-71.73
-25.29
24.53
67.74
93.40
97.79
84.95
62.96
39.82
19.31
1.20
-16.68
-35.92
-56.41
-75.60
-90.38
-99.43
-100.91
-93.99
-78.72
-56.49
-30.31
-5.01
14.32
23.04
19.33
6.53
-8.48
-18.78
-20.95
-16.03
-8.30
-2.52
-2.11
-7.52
-16.16
-23.69
-25.05
-16.07
5.15
37.41
76.07
114.03
145.13
166.21
177.41
183.46
185.47
183.50
177.04
165.42
148.67
127.76
104.36
79.52
51.49
23.14
-4.80
-29.58
-47.41
-55.32
-53.38
-45.15
-36.59
-33.48
-39.19
-53.48
-72.45
-90.76
-103.42
-106.57
-98.00
-77.43
-45.80
-9.45
22.65
42.78
46.96
36.21
15.85
-7.17
-27.19
-41.68
-50.80
-56.30
-59.56
-61.35
-62.10
-62.23
-62.34
-63.00
-64.84
-67.92
-71.72
-75.04
-76.64
-75.83
-71.54
-63.31
-51.05
-35.43
-17.68
0.69
18.43
34.77
49.65
63.63
77.33
91.48
105.66
118.58
128.51
134.27
135.65
133.71
130.43
127.96
128.77
134.19
145.19
162.09
184.21
208.89
231.51
247.10
249.17
236.94
214.37
189.57
171.02
163.46
164.81
166.99
159.74
135.15
91.13
29.18
-45.64
-126.33
-205.59
-276.87
-335.30
-377.70
-402.83
-411.28
-408.54
-401.99
-398.81
-403.64
-417.04
-435.09
-450.18
-453.75
-426.50
-361.45
-266.88
-162.98
-71.03
-3.27
39.47
63.50
76.38
83.55
85.28
80.60
70.14
56.52
43.41
33.52
27.52
24.43
22.80
20.35
15.83
10.86
8.21
10.46
18.28
30.33
44.25
57.96
69.65
79.20
88.26
98.78
112.12
128.10
145.17
161.64
176.66
190.16
203.46
219.45
238.77
262.42
290.48
321.06
350.01
371.34
378.60
367.33
337.55
293.25
240.90
187.04
136.18
90.13
48.67
10.74
-24.67
-57.61
-89.15
-122.13
-160.12
-205.91
-259.76
-318.92
-378.41
-432.81
-476.99
-500.89
-497.63
-465.14
-407.43
-333.24
-252.72
-174.04
-106.96
-51.10
-5.82
26.96
43.97
42.29
21.06
-16.75
-64.11
-110.52
-142.73
-149.67
-126.20
-74.16
-1.50
80.76
162.03
234.76
291.30
325.64
334.17
316.84
277.46
222.80
161.26
101.22
49.37
9.05
-19.26
-37.83
-50.59
-61.56
-72.33
-81.58
-86.23
-82.68
-68.25
-41.36
-2.95
42.79
87.64
120.88
133.53
122.40
91.88
52.18
15.18
-10.58
-22.78
-24.82
-22.46
-20.14
-19.21
-18.55
-16.44
-12.34
-7.27
-3.22
-2.08
-4.47
-9.39
-14.60
-17.85
-17.68
-14.06
-8.33
-2.52
1.22
1.49
-1.43
-6.02
-10.61
-14.27
-17.02
-18.77
-18.27
-12.60
1.29
25.41
58.56
95.70
129.40
153.09
163.56
161.50
149.68
129.92
101.91
63.91
15.51
-40.09
-95.25
-139.94
-165.87
-167.77
-148.89
-117.58
-82.94
-50.89
-23.67
-0.90
18.53
34.50
45.71
50.36
47.76
39.16
27.15
14.58
3.34
-5.97
-14.17
-22.66
-33.06
-46.25
-61.42
-76.79
-90.49
-101.03
-107.47
-109.51
-106.99
-97.19
-81.37
-61.19
-38.45
-15.33
5.93
23.81
37.54
47.61
55.35
61.59
67.18
72.40
76.71
79.00
79.02
77.55
76.31
76.99
80.22
84.74
87.84
86.16
77.03
59.46
34.52
4.63
-26.76
-56.22
-80.14
-94.55
-96.49
-85.88
-67.19
-48.82
-39.66
-44.23
-59.82
-76.95
-84.20
-74.69
-49.83
-18.36
8.79
24.41
28.33
25.83
23.55
25.30
30.29
34.63
34.64
29.34
20.84
12.83
8.51
8.89
12.86
18.02
22.57
26.18
29.48
33.38
37.15
38.14
32.90
19.38
-1.48
-25.67
-47.68
-62.91
-69.39
-68.16
-61.95
-53.59
-44.89
-36.56
-29.14
-23.69
-22.11
-26.00
-35.34
-47.26
-56.20
-55.58
-40.46
-10.41
29.88
71.53
105.00
123.32
124.20
109.80
84.94
55.01
24.95
-0.32
-15.72
-16.62
-0.72
29.75
67.61
102.76
125.88
131.60
120.45
98.11
72.49
50.79
37.03
31.74
33.07
38.13
43.34
45.34
41.72
31.45
15.20
-4.92
-27.03
-49.38
-70.50
-90.05
-107.77
-122.74
-133.18
-136.49
-132.33
-121.52
-104.53
-81.48
-53.84
-24.62
1.87
21.57
34.11
40.91
46.32
55.79
71.17
86.37
89.48
68.71
19.23
-52.06
-132.88
-208.99
-268.97
-297.20
-285.39
-237.01
-166.38
-100.73
-44.39
4.21
45.23
77.89
98.23
102.66
91.89
71.59
51.15
41.53
46.59
63.49
84.81
101.08
103.11
84.76
43.68
-17.77
-88.47
-154.12
-199.45
-214.45
-199.45
-164.62
-124.04
-90.39
-69.96
-60.83
-57.98
-56.37
-53.54
-50.23
-50.45
-54.15
-58.71
-59.07
-49.15
-25.75
10.91
58.02
111.26
165.27
215.90
258.60
288.47
300.77
292.19
263.36
219.76
170.41
125.09
91.24
70.98
62.36
61.47
64.68
69.90
75.96
81.49
84.69
84.91
80.33
70.22
54.88
34.93
11.23
-16.02
-46.87
-81.08
-117.13
-152.49
-183.97
-208.00
-221.86
-224.30
-216.16
-199.84
-178.13
-152.78
-124.40
-92.71
-57.50
-19.47
19.52
56.59
87.55
106.44
109.57
97.04
72.18
39.85
4.97
-28.35
-57.34
-80.35
-97.23
-108.87
-116.69
-122.28
-126.83
-130.83
-134.00
-136.73
-137.04
-132.81
-122.43
-105.11
-80.94
-50.50
-14.54
26.27
69.45
111.99
150.83
183.33
207.67
222.99
229.62
229.13
223.71
215.67
207.39
200.74
196.92
195.95
195.96
193.04
182.45
160.42
126.46
84.69
42.33
6.98
-16.35
-26.88
-27.44
-22.15
-14.27
-5.32
4.70
15.71
26.49
34.93
39.34
38.61
33.43
25.42
16.07
5.88
-6.01
-21.15
-40.37
-63.23
-87.84
-111.02
-129.72
-141.87
-147.27
-147.40
-144.71
-141.65
-140.32
-141.91
-146.21
-151.31
-153.54
-148.44
-132.41
-104.73
-68.41
-29.82
3.78
27.23
39.19
42.12
40.24
37.26
34.85
32.79
30.15
26.61
23.03
20.59
20.26
21.76
23.80
24.86
23.84
20.69
16.33
12.14
9.29
8.24
8.55
9.19
9.02
7.37
4.22
0.15
-3.95
-7.34
-9.74
-11.43
-13.01
-15.12
-18.19
-22.18
-26.79
-31.55
-36.05
-40.15
-43.95
-47.72
-51.77
-56.30
-61.34
-66.84
-72.68
-78.77
-85.18
-91.92
-98.92
-105.95
-112.50
-117.75
-120.64
-120.21
-115.11
-104.36
-87.39
-64.28
-35.82
-3.35
31.29
65.97
98.58
127.36
150.86
168.35
179.63
185.07
185.52
181.97
175.54
167.28
158.04
148.26
138.14
127.47
115.76
102.61
87.44
69.94
50.01
27.72
2.50
-24.43
-51.69
-78.07
-102.35
-123.49
-140.31
-152.10
-158.23
-158.31
-152.11
-139.67
-121.53
-98.53
-71.98
-42.80
-12.17
18.85
49.36
77.54
102.77
124.78
145.09
163.12
178.33
189.53
195.47
195.08
187.84
174.04
154.41
130.03
99.75
65.93
30.78
-4.01
-37.23
-67.90
-94.85
-117.27
-134.80
-147.64
-156.25
-162.00
-166.32
-170.14
-173.73
-175.46
-172.93
-163.68
-146.12
-119.78
-86.15
-47.80
-7.57
31.64
67.97
100.43
128.71
152.82
173.31
190.70
205.04
215.09
217.85
209.30
186.06
147.71
98.26
45.55
-1.47
-36.12
-56.29
-64.32
-64.84
-62.21
-58.77
-54.84
-49.94
-44.21
-38.81
-35.30
-34.54
-36.06
-38.31
-39.44
-38.13
-34.36
-29.18
-24.23
-20.91
-19.78
-20.36
-21.46
-21.78
-20.49
-17.55
-13.68
-9.89
-7.08
-5.62
-5.25
-5.28
-4.98
-3.86
-1.86
0.67
3.21
5.29
6.74
7.71
8.55
9.62
11.24
13.49
16.32
19.69
23.36
27.27
31.29
35.24
38.73
41.24
42.10
40.47
35.90
28.07
17.05
3.39
-11.87
-27.39
-41.69
-53.30
-61.07
-64.12
-62.09
-55.19
-44.00
-29.53
-13.13
3.47
18.44
30.03
37.00
38.75
35.35
27.65
16.84
4.26
-9.16
-22.99
-37.36
-52.33
-67.63
-82.23
-94.29
-102.05
-104.31
-101.03
-93.59
-84.27
-74.99
-66.39
-57.61
-46.32
-30.16
-7.63
21.10
54.05
87.32
116.18
135.93
141.53
131.27
107.10
74.55
41.36
14.84
-1.83
-10.31
-15.72
-24.07
-39.12
-60.60
-84.27
-103.82
-110.88
-101.63
-76.13
-38.23
6.00
49.35
84.98
108.49
119.33
121.88
124.18
132.19
147.30
166.27
182.28
188.02
179.36
156.03
121.35
79.54
33.97
-14.33
-63.50
-110.19
-149.68
-176.66
-188.35
-184.81
-168.97
-137.20
-94.91
-48.76
-4.15
32.84
62.94
86.30
102.35
110.09
108.52
95.67
70.41
32.42
-15.41
-67.05
-116.58
-159.91
-195.56
-223.07
-241.83
-248.37
-238.23
-208.76
-161.83
-105.12
-49.18
-3.29
28.02
44.97
51.94
53.79
53.41
51.03
45.36
36.14
25.41
17.04
13.99
16.96
23.35
28.76
28.69
20.87
6.46
-10.37
-23.53
-28.41
-21.56
-3.20
22.72
49.54
69.48
76.01
65.85
41.01
8.26
-22.66
-42.50
-45.82
-32.70
-8.48
19.52
42.12
53.93
54.21
45.68
32.10
16.66
1.59
-11.88
-22.40
-28.76
-29.20
-22.08
-5.42
22.59
61.87
109.01
155.91
191.79
207.53
200.76
176.78
146.13
120.39
102.74
90.55
77.88
59.57
34.17
4.58
-25.02
-51.61
-74.58
-95.82
-116.90
-137.52
-155.16
-165.99
-166.50
-156.23
-137.93
-116.60
-97.93
-85.77
-81.03
-81.68
-83.80
-79.14
-64.00
-38.79
-7.00
26.34
56.98
82.79
103.87
121.49
137.10
151.56
162.89
167.82
163.10
146.57
117.39
75.97
24.14
-33.25
-87.12
-127.21
-145.78
-140.91
-117.33
-84.50
-52.60
-28.62
-14.25
-7.38
-4.68
-3.69
-3.84
-5.65
-9.36
-13.99
-17.56
-18.09
-15.14
-10.18
-5.60
-3.60
-5.07
-9.32
-14.55
-18.66
-20.26
-19.30
-17.06
-15.35
-15.53
-17.99
-22.05
-26.42
-29.83
-31.73
-32.52
-33.32
-35.33
-39.04
-44.07
-49.30
-53.38
-55.30
-54.86
-52.55
-49.19
-45.85
-41.87
-35.89
-26.27
-11.88
7.19
29.21
51.39
70.51
84.04
90.95
91.84
89.10
86.19
86.82
93.44
105.80
120.11
129.44
126.30
105.93
69.32
23.46
-21.22
-55.22
-73.80
-78.17
-74.19
-69.07
-68.31
-74.10
-85.78
-100.54
-113.95
-120.33
-113.64
-90.44
-52.40
-7.36
32.93
57.18
59.52
42.22
13.53
-13.52
-28.00
-25.62
-9.04
15.40
41.62
66.13
87.91
106.77
122.61
134.27
140.37
140.53
135.79
128.11
119.33
111.09
101.21
86.47
63.99
33.42
-1.89
-35.42
-59.88
-70.51
-68.03
-58.39
-49.18
-46.59
-53.21
-67.92
-87.15
-107.16
-125.16
-139.40
-149.04
-153.55
-153.21
-149.71
-146.04
-144.72
-146.70
-151.36
-154.68
-151.79
-138.38
-112.05
-72.77
-23.11
32.14
85.44
127.63
151.72
156.13
146.77
135.20
134.41
149.82
178.43
210.17
233.16
239.66
228.76
205.54
177.16
148.44
120.21
91.39
61.39
32.62
10.34
-0.11
4.31
22.89
51.53
84.44
116.19
142.21
158.91
163.40
154.01
130.73
95.81
53.10
6.99
-39.00
-83.25
-125.14
-163.77
-196.97
-222.25
-236.63
-241.46
-242.46
-247.99
-266.10
-300.81
-349.88
-405.01
-454.16
-485.47
-491.38
-470.49
-427.53
-371.36
-311.58
-255.64
-207.31
-166.97
-133.44
-106.11
-85.84
-73.92
-70.75
-74.34
-80.23
-82.94
-77.90
-63.04
-39.42
-10.27
20.66
50.60
78.79
106.48
136.19
170.87
212.85
263.32
321.40
383.29
441.87
487.55
510.54
504.16
467.68
407.55
335.43
264.34
203.95
157.15
120.03
84.43
41.84
-13.48
-83.12
-164.61
-252.38
-338.57
-414.38
-471.38
-503.49
-508.36
-488.24
-449.09
-398.61
-343.94
-290.02
-239.50
-193.68
-153.24
-118.43
-88.68
-62.08
-35.85
-7.27
24.97
60.06
95.53
128.17
155.65
177.50
195.19
211.33
228.34
247.71
269.88
294.60
321.16
347.84
370.97
385.02
384.24
365.44
330.66
287.46
246.38
216.65
202.46
201.99
209.29
218.03
224.50
228.33
230.86
232.96
233.64
230.60
221.83
207.08
188.18
168.17
149.84
134.33
120.67
106.25
88.14
64.54
35.64
3.77
-27.60
-55.13
-76.91
-92.76
-103.92
-111.95
-117.79
-121.35
-121.68
-117.59
-108.44
-94.56
-77.11
-57.67
-37.32
-16.24
6.16
30.53
56.45
81.89
103.49
117.92
123.46
120.86
113.17
104.20
96.70
91.14
85.89
78.39
66.87
51.30
33.28
15.16
-1.13
-14.73
-25.81
-35.02
-42.91
-49.57
-54.90
-59.01
-62.50
-66.39
-71.43
-77.35
-82.66
-85.38
-84.41
-81.03
-79.37
-85.31
-104.03
-137.06
-180.78
-227.27
-267.36
-294.14
-305.56
-304.51
-296.59
-286.88
-277.37
-266.18
-248.84
-220.75
-179.13
-124.34
-59.85
8.54
74.00
129.74
170.24
192.15
195.16
182.59
161.13
139.67
126.83
128.00
143.04
165.84
185.93
191.96
175.83
135.32
74.45
1.71
-73.01
-140.73
-193.91
-226.27
-234.34
-218.37
-182.97
-136.13
-86.95
-43.27
-9.96
11.87
23.94
28.11
25.67
17.07
2.48
-18.16
-44.96
-77.92
-116.23
-157.25
-196.15
-226.10
-239.96
-232.93
-204.79
-160.60
-109.15
-60.22
-21.80
1.86
10.34
6.34
-5.60
-20.01
-30.97
-32.28
-18.05
16.12
71.61
143.72
221.18
287.52
326.43
328.73
296.70
242.58
182.45
129.34
89.08
60.72
39.91
22.97
8.89
-1.16
-5.99
-6.15
-4.10
-3.23
-5.71
-11.71
-19.30
-25.43
-27.70
-25.50
-20.20
-14.42
-10.75
-10.55
-13.49
-17.69
-20.68
-20.62
-17.16
-11.48
-5.60
-1.44
0.18
-0.23
-1.10
-0.55
2.56
8.05
14.54
20.01
22.64
21.82
17.34
9.88
0.31
-10.49
-21.71
-32.35
-41.39
-48.28
-53.48
-58.72
-66.07
-76.99
-91.13
-105.89
-117.13
-121.14
-116.76
-106.28
-94.90
-88.18
-90.10
-101.49
-120.28
-142.97
-166.33
-188.08
-206.17
-217.91
-219.06
-205.84
-177.00
-135.38
-87.88
-43.02
-7.96
14.13
24.21
26.69
26.05
25.20
25.28
26.49
29.43
35.86
48.75
66.74
89.37
115.01
140.60
162.45
177.48
184.39
184.35
180.73
177.99
180.79
191.98
211.87
238.51
268.46
297.81
322.94
340.91
349.91
349.68
341.18
326.55
308.90
291.74
278.34
271.04
270.68
276.46
286.39
297.56
306.94
312.44
313.58
311.64
309.26
309.17
313.06
320.72
329.60
335.57
334.19
322.13
297.92
262.28
217.47
166.78
113.78
61.81
13.46
-29.73
-67.36
-100.23
-129.98
-158.64
-188.00
-219.45
-253.75
-291.27
-332.28
-377.00
-425.83
-479.32
-538.42
-603.98
-675.82
-751.29
-824.33
-886.23
-927.81
-942.81
-930.25
-895.03
-845.84
-791.77
-739.26
-690.68
-645.33
-601.40
-557.80
-514.63
-472.63
-432.26
-393.14
-354.26
-314.58
-273.56
-231.29
-188.39
-145.54
-103.19
-61.62
-20.92
18.74
57.31
94.87
131.63
167.92
204.07
240.10
275.43
309.15
340.09
367.54
391.42
412.07
430.10
446.58
462.96
480.55
499.71
518.53
532.77
536.03
521.73
485.97
430.22
361.04
287.72
218.84
159.54
111.52
73.37
42.14
14.84
-9.91
-33.71
-58.93
-88.50
-124.76
-167.06
-212.17
-254.01
-285.36
-298.59
-288.81
-254.56
-198.64
-128.66
-53.42
19.32
82.41
131.13
166.45
192.07
212.95
234.18
252.04
267.99
285.38
308.04
325.56
331.04
320.86
296.18
261.49
221.69
182.50
148.01
120.22
99.25
85.89
79.61
78.59
79.21
75.80
63.03
37.16
-0.98
-44.42
-80.76
-99.41
-97.39
-81.47
-64.71
-58.53
-67.23
-86.39
-106.45
-118.04
-117.92
-109.61
-99.86
-93.80
-91.82
-90.67
-86.52
-77.81
-65.82
-53.96
-45.53
-42.15
-42.94
-44.91
-44.80
-40.46
-31.75
-20.39
-9.20
-0.65
4.18
6.04
6.97
9.17
13.96
21.16
28.87
34.44
35.61
31.36
22.47
10.99
-0.50
-10.16
-17.33
-22.81
-28.17
-34.86
-43.88
-54.96
-68.25
-83.20
-98.18
-110.23
-115.29
-109.60
-91.72
-63.97
-32.04
-3.00
17.69
28.15
30.14
27.51
23.90
21.05
18.78
16.15
12.74
9.26
7.06
6.98
8.75
11.08
12.50
11.84
9.07
5.09
1.26
-1.22
-1.93
-1.37
-0.52
-0.49
-1.97
-4.83
-8.40
-11.79
-14.28
-15.74
-16.68
-17.88
-20.22
-24.31
-30.19
-37.53
-45.77
-54.33
-62.69
-70.48
-77.20
-82.01
-83.84
-81.44
-73.88
-60.75
-42.53
-20.61
2.74
25.36
45.61
62.74
77.00
89.06
99.71
109.38
118.24
125.29
130.16
133.09
135.47
138.62
143.51
150.20
157.31
162.12
161.50
153.60
138.21
116.37
92.32
69.72
50.98
37.31
28.82
24.57
22.77
20.26
12.74
-3.63
-30.50
-65.02
-100.02
-126.79
-139.80
-139.68
-133.13
-129.72
-134.95
-148.72
-165.06
-175.67
-174.75
-161.54
-139.87
-113.88
-87.98
-62.68
-36.55
-8.38
20.85
47.48
67.15
76.16
73.33
60.53
42.37
24.08
9.80
1.57
-0.97
-0.01
1.54
1.28
-2.83
-11.78
-25.71
-43.21
-60.97
-74.13
-77.03
-68.15
-48.34
-22.26
3.72
24.27
37.32
44.69
50.26
57.62
68.36
82.02
96.53
109.16
116.82
116.36
105.24
82.77
51.10
15.44
-17.53
-41.80
-54.18
-53.87
-44.52
-30.75
-15.93
-1.53
12.29
25.38
37.47
48.23
57.74
66.38
75.16
84.40
93.37
100.39
102.88
98.62
86.48
66.81
41.34
13.18
-14.73
-40.15
-61.54
-78.87
-92.68
-103.83
-113.11
-121.02
-127.84
-133.83
-140.82
-146.85
-150.71
-151.16
-147.25
-138.42
-124.61
-106.76
-86.63
-66.14
-46.16
-27.83
-11.84
1.36
11.50
18.30
21.22
19.71
14.12
6.90
0.49
-2.84
-1.47
5.01
15.59
27.68
37.21
39.93
32.99
13.78
-18.71
-62.72
-113.36
-160.35
-192.67
-204.57
-202.97
-194.62
-186.05
-181.68
-182.70
-184.56
-182.14
-171.43
-151.67
-123.41
-86.82
-41.97
10.86
67.30
119.85
160.75
185.33
192.01
183.55
165.10
142.08
118.15
95.36
74.98
57.30
48.02
42.91
38.17
32.14
25.10
16.87
6.99
-4.60
-17.55
-31.17
-45.49
-58.82
-74.89
-92.88
-112.06
-132.34
-153.34
-173.96
-192.57
-208.29
-219.78
-222.39
-212.06
-188.61
-155.16
-115.89
-73.98
-31.18
11.19
52.54
98.32
152.85
215.62
281.87
345.93
404.20
455.67
500.88
541.14
585.38
639.95
704.67
773.35
838.05
893.03
935.71
965.52
934.72
820.85
634.54
414.26
200.68
17.78
-127.69
-238.42
-320.45
-380.29
-415.90
-427.34
-419.60
-402.50
-386.04
-376.18
-373.62
-376.03
-380.55
-377.99
-362.45
-333.06
-294.50
-252.81
-211.80
-171.97
-132.38
-92.00
-45.73
8.78
69.95
130.20
179.26
208.21
213.06
195.00
154.94
102.85
47.79
2.53
-24.39
-31.51
-26.14
-15.70
-4.63
4.84
13.74
21.28
25.70
22.80
9.47
-14.39
-44.64
-75.88
-103.48
-123.97
-136.10
-139.90
-138.69
-136.01
-134.26
-133.13
-132.46
-133.37
-138.06
-149.35
-158.63
-160.67
-153.78
-140.42
-123.08
-103.67
-83.63
-64.03
-45.38
-28.30
-15.14
-7.09
-9.57
-18.02
-27.13
-34.26
-39.42
-43.28
-46.80
-52.08
-60.38
-71.55
-83.37
-94.47
-100.62
-102.68
-103.26
-105.52
-112.89
-127.92
-152.43
-186.81
-221.17
-248.20
-261.64
-256.40
-230.66
-187.25
-132.95
-77.04
-33.01
-2.04
16.77
26.31
31.04
35.50
43.42
58.22
84.55
126.11
183.17
250.43
320.02
383.68
433.50
461.99
463.92
438.05
388.91
327.29
265.47
214.29
179.79
161.79
155.04
153.98
153.75
152.12
148.90
143.23
133.77
119.24
99.54
75.69
50.35
26.34
5.44
-12.49
-29.89
-50.12
-76.39
-106.23
-137.28
-166.64
-192.05
-212.71
-229.21
-243.41
-257.61
-273.91
-293.57
-316.91
-341.54
-362.01
-370.69
-359.91
-324.86
-265.77
-188.02
-100.17
-11.10
73.51
152.16
226.25
297.22
363.81
421.26
462.48
481.05
473.58
441.55
390.75
328.96
263.29
198.02
134.82
74.70
19.96
-25.64
-58.52
-78.17
-88.40
-95.64
-104.98
-116.03
-121.67
-111.03
-75.53
-13.98
65.55
148.68
220.70
271.75
299.07
305.63
296.72
277.10
250.02
217.81
182.75
147.82
115.79
88.19
64.75
43.41
21.56
-2.76
-30.10
-59.80
-90.52
-121.29
-151.99
-183.21
-215.69
-249.62
-284.57
-319.62
-353.94
-386.88
-418.42
-449.54
-481.83
-517.14
-556.91
-601.29
-648.12
-692.09
-724.67
-737.06
-723.68
-683.90
-622.08
-545.47
-461.73
-376.90
-294.17
-213.58
-135.14
-60.73
7.16
67.21
121.17
173.80
230.24
293.78
364.74
436.41
495.40
527.08
521.34
476.72
400.55
303.88
198.09
92.47
1.54
-63.11
-97.27
-106.95
-104.10
-98.89
-97.35
-110.62
-130.52
-146.51
-150.73
-139.16
-111.72
-72.19
-19.99
37.66
92.38
140.16
179.59
211.75
240.11
269.20
303.46
345.86
395.41
448.39
499.99
542.42
567.41
569.51
548.72
511.11
466.84
425.41
393.26
372.43
358.68
344.56
322.21
286.04
233.77
166.40
86.73
-0.74
-90.21
-176.69
-256.49
-327.59
-390.17
-446.51
-500.25
-555.16
-612.67
-670.01
-720.67
-756.04
-768.80
-756.10
-720.73
-669.91
-612.44
-555.42
-502.48
-454.21
-409.74
-368.58
-331.25
-298.59
-270.95
-247.50
-226.49
-205.90
-184.49
-162.07
-139.49
-117.98
-98.24
-80.26
-63.08
-45.37
-25.94
-4.34
18.92
42.53
64.92
84.95
102.28
117.54
132.05
147.25
164.19
183.09
203.33
223.71
242.99
260.42
276.02
290.61
305.40
321.55
339.56
359.04
378.67
396.52
410.56
419.26
421.91
419.09
413.18
408.21
409.17
420.00
441.24
468.60
493.34
505.04
495.91
464.27
415.48
359.54
306.95
264.47
233.43
210.72
191.26
170.27
144.28
111.00
69.58
21.76
-26.70
-66.04
-85.51
-78.27
-45.72
1.41
46.67
74.50
76.40
53.51
14.34
-30.39
-72.89
-110.52
-144.95
-179.28
-215.91
-256.40
-302.24
-355.28
-416.66
-484.94
-554.54
-616.54
-661.51
-682.99
-680.26
-658.25
-625.23
-589.37
-556.04
-526.93
-501.01
-476.13
-450.34
-422.54
-392.20
-359.31
-324.22
-287.80
-251.48
-216.88
-185.54
-158.31
-135.17
-115.23
-97.17
-79.68
-61.93
-43.81
-25.80
-8.76
6.53
19.62
30.62
39.92
48.07
55.47
62.12
67.71
71.69
73.57
73.09
70.37
65.75
59.75
52.83
45.27
37.19
28.59
19.53
10.14
0.70
-8.48
-17.06
-24.83
-31.72
-37.70
-42.93
-47.55
-51.71
-55.45
-58.79
-61.71
-64.06
-65.65
-66.22
-65.45
-62.98
-58.54
-51.93
-43.08
-32.11
-19.25
-4.92
10.34
25.88
40.98
54.86
66.77
76.05
82.20
85.04
84.67
81.53
76.41
70.20
63.84
58.05
53.42
50.30
48.97
49.60
52.45
57.81
65.90
77.05
91.17
107.57
125.00
141.76
157.00
170.62
183.15
195.39
208.28
222.23
236.91
251.41
264.47
275.86
286.46
297.87
311.84
330.57
355.03
384.68
417.69
450.91
482.99
514.08
545.29
578.52
618.61
669.55
732.94
806.34
880.67
947.00
996.73
1022.78
1022.35
1002.91
974.77
947.13
924.27
900.10
872.07
839.65
803.20
765.22
736.67
725.54
733.65
755.16
771.45
774.81
764.54
742.98
715.34
696.77
698.12
722.65
764.53
802.07
827.91
843.61
854.09
791.74
616.09
322.63
-47.59
-362.12
-591.55
-742.28
-829.53
-885.96
-925.88
-946.64
-945.33
-923.30
-888.74
-864.30
-857.80
-868.14
-891.01
-919.00
-938.37
-939.48
-918.94
-880.86
-842.01
-808.68
-780.89
-756.41
-730.88
-696.58
-648.78
-586.95
-515.31
-445.94
-384.11
-331.11
-286.84
-250.05
-218.34
-190.86
-168.40
-153.10
-149.69
-158.25
-176.36
-201.00
-229.39
-259.59
-291.27
-325.33
-363.57
-409.02
-463.05
-524.95
-591.30
-655.33
-708.05
-740.19
-745.30
-722.06
-674.65
-611.10
-540.17
-468.39
-399.15
-333.07
-269.82
-209.56
-153.29
-102.29
-56.93
-15.96
23.70
65.80
112.77
163.85
213.71
253.38
272.99
265.39
228.56
166.14
85.52
-4.48
-95.22
-178.68
-247.14
-293.58
-313.24
-305.66
-275.45
-231.12
-181.87
-134.29
-90.81
-50.55
-11.67
26.61
63.26
96.76
126.52
153.79
181.33
211.90
246.92
286.15
328.09
370.65
411.40
447.05
473.53
487.27
487.21
476.48
461.77
450.46
446.35
447.10
444.84
430.25
397.57
347.75
287.58
225.82
168.71
117.44
68.69
17.35
-40.08
-103.40
-168.36
-227.77
-273.84
-300.53
-305.13
-288.40
-253.85
-206.61
-152.78
-99.35
-54.50
-26.91
-23.85
-48.82
-99.96
-170.60
-251.48
-333.31
-408.38
-470.66
-515.21
-538.06
-537.72
-516.20
-479.37
-435.35
-391.22
-350.34
-311.77
-272.41
-230.52
-188.36
-151.72
-126.93
-116.76
-117.97
-122.12
-119.42
-103.21
-73.05
-34.60
3.91
35.96
59.59
77.38
94.00
112.96
134.89
158.09
180.81
203.04
226.17
250.62
273.61
288.46
287.20
265.25
224.94
175.99
132.14
105.50
102.05
120.79
156.13
201.53
251.76
302.02
345.71
373.43
375.15
345.31
287.14
213.36
141.26
85.24
50.07
29.08
8.00
-27.90
-86.85
-167.46
-259.87
-350.33
-425.99
-478.40
-504.53
-505.93
-487.34
-454.63
-413.67
-369.48
-325.91
-285.69
-250.86
-222.46
-199.96
-181.20
-162.58
-140.56
-113.19
-81.07
-46.97
-14.48
13.64
36.80
56.55
75.75
97.18
122.53
151.92
183.83
215.34
242.70
262.36
272.24
273.06
268.70
265.05
267.75
279.50
298.78
320.81
340.26
354.01
362.45
368.36
374.33
380.63
384.81
383.38
374.22
358.06
338.16
318.62
302.29
289.85
280.25
271.98
264.34
257.60
252.41
249.01
246.66
243.82
238.73
230.26
218.38
204.12
189.03
174.38
160.69
147.53
133.96
119.10
102.47
84.00
63.57
40.75
14.99
-13.74
-44.20
-73.44
-97.34
-111.90
-114.78
-106.53
-90.94
-74.07
-62.49
-61.41
-73.02
-95.79
-124.88
-153.34
-174.14
-182.33
-176.53
-159.34
-136.25
-113.17
-93.92
-78.63
-63.91
-44.94
-18.46
14.95
50.59
81.40
101.12
107.01
100.83
87.93
75.01
67.88
69.97
81.81
101.33
124.67
147.00
163.75
172.08
171.72
165.06
155.90
147.48
140.67
133.90
124.22
109.30
88.78
64.05
36.67
6.46
-28.68
-71.23
-120.66
-171.23
-212.29
-231.48
-219.41
-173.28
-97.78
-3.39
96.85
190.42
267.29
320.74
347.58
348.08
325.89
287.23
239.59
190.01
143.76
103.64
70.34
42.99
19.53
-2.61
-26.12
-52.99
-83.90
-117.91
-152.76
-185.92
-215.15
-239.59
-259.97
-278.64
-298.87
-323.57
-353.55
-386.23
-415.36
-432.27
-428.28
-397.34
-338.20
-255.30
-158.14
-59.59
26.74
89.50
121.97
123.17
97.30
52.02
-3.55
-60.02
-108.10
-138.99
-145.60
-124.89
-80.12
-20.60
41.79
97.75
145.18
189.06
237.09
293.39
354.17
408.30
442.72
449.44
429.87
394.03
355.42
324.54
304.86
292.77
281.37
265.02
242.17
215.38
189.00
166.14
147.02
129.37
110.25
88.21
64.32
41.49
22.65
9.11
-0.21
-8.02
-17.21
-29.67
-45.31
-62.70
-80.02
-96.17
-111.37
-126.87
-144.27
-164.58
-187.70
-212.47
-237.42
-261.36
-283.88
-305.19
-325.65
-345.21
-363.35
-379.15
-391.94
-401.88
-410.18
-419.30
-432.53
-453.47
-485.01
-528.11
-580.39
-635.51
-684.18
-716.62
-726.20
-711.79
-677.92
-632.44
-583.21
-535.10
-489.34
-444.62
-399.36
-353.96
-310.33
-270.38
-234.33
-200.06
-163.90
-122.44
-73.96
-19.10
37.87
92.15
140.38
182.02
219.37
256.03
295.22
339.01
388.31
440.02
490.20
534.66
569.26
589.76
591.92
572.80
532.57
475.32
403.00
318.30
224.33
125.17
25.78
-69.19
-156.34
-234.08
-302.77
-371.05
-448.21
-540.20
-646.22
-759.03
-868.89
-967.26
-1049.08
-1073.46
-1013.36
-863.39
-647.07
-405.60
-176.43
19.60
177.35
300.59
395.60
461.68
497.31
503.36
485.38
452.69
415.14
380.79
355.94
345.47
347.96
359.57
375.01
389.19
398.43
401.00
397.37
390.13
382.75
374.89
364.49
351.51
334.69
315.98
299.16
287.27
280.79
277.33
271.27
257.00
228.52
188.24
141.59
95.44
56.44
29.48
16.56
15.00
17.40
13.66
-6.01
-46.01
-101.57
-158.95
-200.83
-213.12
-191.26
-143.53
-84.36
-31.25
1.22
5.81
-15.84
-55.36
-100.27
-137.02
-154.01
-143.89
-106.31
-48.85
14.65
67.94
97.68
98.53
75.42
42.31
17.10
14.25
37.78
79.95
124.73
155.10
159.80
137.30
94.91
45.43
1.26
-30.61
-49.61
-59.63
-65.98
-72.88
-82.12
-94.08
-108.42
-119.19
-122.00
-114.74
-98.47
-76.29
-51.35
-25.32
0.62
25.12
45.08
58.37
63.41
61.02
54.21
47.40
44.29
46.33
52.74
61.92
70.81
75.77
74.13
64.48
46.75
21.53
-10.59
-49.44
-95.44
-144.78
-192.00
-230.15
-252.42
-253.28
-230.27
-185.39
-125.70
-61.62
-3.99
38.86
63.81
72.65
70.23
61.47
49.90
37.80
27.41
20.72
18.62
20.86
25.25
30.15
34.25
37.20
40.04
45.08
54.82
71.05
94.23
122.75
152.86
178.58
193.80
192.75
175.80
149.49
124.05
108.96
108.78
121.99
142.06
161.72
176.91
187.18
193.27
196.26
196.39
193.10
186.07
175.35
162.25
148.90
137.11
125.62
111.47
90.38
58.22
15.86
-35.04
-90.74
-146.13
-195.86
-238.21
-273.20
-302.19
-326.54
-346.65
-362.81
-374.31
-379.77
-377.96
-371.52
-364.09
-359.28
-359.59
-366.03
-379.49
-400.81
-431.08
-451.30
-447.97
-413.66
-349.18
-261.32
-159.59
-55.04
41.57
121.14
178.95
213.22
227.23
227.05
219.05
207.88
195.58
183.12
171.43
162.00
154.32
147.52
140.42
132.08
121.90
109.55
95.22
79.73
64.79
51.18
39.94
32.13
27.98
28.46
33.67
42.95
55.06
68.76
82.27
94.01
102.62
107.44
108.92
108.07
105.90
102.13
94.88
80.71
56.41
21.45
-20.38
-60.72
-89.16
-97.88
-85.36
-56.19
-18.66
18.89
51.31
77.44
98.77
116.71
132.48
144.14
149.00
144.99
131.34
108.33
76.65
37.11
-9.25
-57.87
-102.22
-134.75
-149.63
-145.34
-125.80
-99.06
-73.81
-56.02
-47.14
-45.27
-47.14
-50.49
-54.99
-61.73
-71.55
-83.77
-96.23
-106.24
-112.23
-114.09
-113.59
-111.88
-109.08
-104.12
-94.69
-78.14
-52.51
-17.56
25.45
73.89
124.19
172.04
212.06
238.05
244.43
228.84
194.00
147.78
101.01
63.41
40.02
29.98
28.30
29.25
29.59
29.53
31.32
37.07
47.06
59.10
69.63
75.77
75.03
66.39
50.24
27.55
0.33
-27.96
-52.81
-69.21
-74.59
-70.11
-60.64
-52.32
-50.27
-56.23
-67.85
-80.10
-88.02
-88.61
-81.73
-71.54
-62.69
-59.01
-61.50
-67.27
-71.15
-67.36
-52.51
-27.50
2.87
32.34
55.31
68.90
72.63
67.79
56.96
43.39
30.55
21.21
16.67
16.00
16.61
16.13
13.58
9.96
7.28
7.21
10.06
14.96
20.33
24.95
28.43
30.73
31.54
29.72
23.71
12.50
-3.49
-22.46
-41.66
-58.16
-69.93
-76.37
-78.58
-78.69
-79.00
-81.17
-85.83
-92.83
-101.32
-110.42
-119.03
-126.54
-132.62
-136.59
-137.37
-133.74
-124.40
-108.42
-85.67
-56.77
-23.44
11.90
46.51
78.21
105.39
127.30
143.97
155.72
163.39
167.64
169.64
169.64
168.54
166.22
162.61
157.75
151.65
144.39
135.89
126.16
115.29
103.61
91.34
78.76
66.01
52.09
37.31
21.56
4.60
-13.64
-32.66
-51.73
-69.72
-85.50
-98.21
-107.24
-112.66
-114.84
-114.23
-110.88
-104.67
-95.42
-83.35
-69.37
-54.99
-42.28
-33.07
-28.22
-27.09
-27.75
-27.44
-23.78
-15.54
-3.09
11.60
25.98
37.96
46.77
52.97
58.21
64.30
72.52
83.20
94.91
104.48
107.41
99.09
76.57
40.51
-4.54
-51.30
-90.69
-116.04
-125.11
-120.25
-106.60
-90.22
-74.80
-61.57
-49.52
-36.16
-18.97
3.29
29.67
57.07
80.37
95.30
99.82
94.65
82.43
65.94
47.00
26.54
5.61
-13.57
-27.87
-33.90
-29.65
-15.80
3.59
22.19
33.16
32.05
18.66
-2.40
-23.20
-35.66
-34.90
-21.45
-0.77
18.93
30.07
28.24
13.24
-11.73
-41.95
-72.82
-100.77
-123.22
-138.18
-144.07
-140.00
-126.40
-105.52
-81.35
-58.56
-40.94
-29.86
-23.63
-18.04
-7.81
11.53
42.04
82.69
129.51
176.51
216.90
244.51
255.06
247.27
222.84
186.34
143.86
101.68
64.92
36.88
19.09
11.46
12.97
21.69
35.65
52.83
70.83
86.29
94.46
89.80
67.56
25.72
-33.67
-104.44
-177.02
-240.59
-286.29
-309.64
-311.08
-294.46
-264.72
-226.37
-183.11
-138.29
-95.43
-57.89
-28.22
-7.33
5.74
13.41
18.39
22.85
27.92
33.35
38.31
41.59
42.58
41.55
39.48
37.50
36.54
36.94
38.38
40.11
41.30
41.37
40.34
38.66
36.81
35.40
34.86
35.32
36.87
39.56
43.31
48.21
54.30
61.14
68.14
74.44
78.66
79.22
74.75
64.23
47.30
24.46
-3.30
-33.84
-64.56
-92.69
-115.65
-131.26
-138.12
-135.83
-123.29
-102.94
-77.50
-49.79
-22.28
3.04
25.16
43.87
59.50
72.68
83.83
93.60
102.01
108.71
112.56
112.61
108.28
99.64
87.23
71.89
55.07
38.08
21.97
7.19
-5.68
-16.11
-23.75
-28.49
-30.79
-31.65
-32.64
-34.23
-38.67
-46.91
-58.46
-71.56
-83.96
-93.79
-100.01
-102.76
-103.07
-102.67
-102.93
-104.95
-109.41
-116.20
-123.73
-128.51
-125.96
-111.94
-85.36
-48.98
-9.17
26.44
51.96
65.35
68.55
65.67
60.63
55.35
50.06
44.23
37.79
31.61
26.99
24.70
24.37
24.66
23.78
20.54
14.79
7.51
0.17
-5.96
-10.42
-13.63
-16.53
-20.35
-25.70
-32.40
-39.60
-46.13
-50.96
-53.70
-54.67
-54.53
-54.07
-53.78
-53.35
-52.14
-49.24
-43.89
-35.85
-25.52
-13.76
-1.60
10.11
20.96
30.70
39.25
46.65
52.75
57.32
60.41
62.49
64.67
68.59
75.81
87.41
103.48
122.60
142.22
159.17
170.59
174.50
169.93
156.74
133.56
101.44
62.53
20.39
-19.70
-54.00
-80.36
-99.74
-115.82
-133.37
-155.04
-179.78
-203.32
-219.68
-224.03
-213.27
-186.40
-144.00
-88.63
-24.55
41.91
102.93
150.06
176.23
178.32
156.68
119.39
78.48
46.46
32.00
37.19
57.56
84.53
109.77
128.71
141.69
151.47
159.22
162.42
155.48
133.18
94.76
45.70
-4.04
-44.33
-68.95
-78.04
-76.84
-72.03
-68.44
-67.18
-66.35
-63.34
-56.95
-48.36
-40.34
-35.34
-34.20
-35.82
-37.85
-37.89
-34.77
-28.93
-21.99
-15.95
-12.19
-10.77
-10.66
-10.19
-7.78
-2.61
4.91
13.70
22.42
29.87
35.53
39.18
40.71
40.05
37.04
31.31
22.72
11.50
-1.52
-15.03
-27.55
-37.70
-44.49
-47.61
-47.48
-44.81
-40.71
-36.36
-32.69
-30.53
-30.35
-32.25
-36.10
-41.56
-47.80
-54.06
-59.67
-63.79
-65.77
-65.15
-61.58
-54.19
-44.02
-31.75
-18.20
-4.35
9.03
21.46
32.78
43.20
53.04
62.43
71.49
80.01
87.40
92.89
95.91
95.74
91.99
84.46
72.93
57.34
37.75
14.48
-11.50
-38.59
-64.55
-86.83
-103.30
-112.73
-114.99
-111.11
-102.83
-92.08
-80.82
-70.85
-63.47
-59.10
-56.79
-54.18
-48.33
-36.87
-19.26
2.36
23.95
41.27
51.68
55.15
53.83
50.45
46.93
43.67
39.80
34.18
26.44
17.15
7.41
-2.00
-11.31
-21.21
-32.26
-44.19
-55.73
-65.20
-71.61
-75.55
-77.79
-80.50
-85.32
-91.92
-97.72
-98.87
-92.10
-76.35
-53.09
-25.45
3.30
31.44
59.03
87.01
115.84
144.46
170.22
189.70
199.75
197.97
183.28
155.76
116.77
69.25
17.95
-31.04
-71.50
-98.84
-111.47
-110.96
-100.90
-85.12
-66.23
-45.22
-22.20
2.21
26.04
46.09
59.29
64.06
61.14
53.25
43.87
35.87
30.54
27.34
24.59
20.60
14.51
7.06
0.26
-3.34
-1.67
5.97
18.69
34.25
50.02
63.89
74.76
82.62
87.97
91.25
92.46
91.16
86.62
78.06
64.69
45.91
21.71
-6.77
-37.07
-65.74
-89.38
-106.13
-116.57
-123.74
-131.69
-143.22
-157.98
-171.96
-179.09
-174.14
-155.63
-126.91
-94.96
-67.44
-49.45
-42.03
-42.82
-48.55
-57.51
-70.30
-88.34
-111.18
-134.68
-151.51
-154.27
-139.36
-109.27
-71.84
-36.74
-10.95
3.95
11.64
18.36
29.24
45.96
66.79
88.40
108.12
125.43
141.68
158.79
177.79
197.80
216.31
230.51
238.71
241.42
241.06
240.37
240.48
239.53
232.80
214.78
181.89
134.58
77.56
18.03
-37.04
-83.31
-119.71
-147.62
-169.09
-185.41
-196.84
-202.96
-203.59
-199.23
-190.76
-178.87
-163.67
-144.70
-121.64
-95.01
-66.52
-38.73
-14.33
4.80
18.15
26.55
31.65
35.22
38.48
41.77
44.71
46.45
46.17
43.37
37.94
30.18
20.70
10.31
-0.00
-9.20
-16.29
-20.59
-21.99
-21.03
-18.79
-16.54
-15.22
-15.10
-15.62
-15.74
-14.43
-11.20
-6.36
-0.77
4.58
9.08
12.79
16.25
20.02
24.31
28.76
32.57
34.96
35.42
33.96
31.00
27.11
22.70
17.95
12.65
6.41
-1.00
-9.56
-18.71
-27.40
-34.39
-38.66
-39.70
-37.70
-33.30
-27.22
-20.10
-12.37
-4.45
3.06
9.39
13.80
15.88
15.84
14.52
12.93
11.87
11.59
11.66
11.23
9.42
5.66
-0.06
-7.18
-14.73
-21.52
-26.35
-28.34
-27.18
-23.27
-17.71
-11.97
-7.26
-4.17
-2.36
-0.98
0.83
3.30
5.81
7.21
6.45
3.33
-1.33
-5.84
-8.42
-7.85
-3.84
2.95
11.28
19.72
26.88
31.48
32.55
29.60
23.02
14.15
5.14
-1.68
-4.62
-3.22
1.52
7.63
12.82
15.33
14.58
11.19
6.94
3.98
4.05
7.59
13.25
18.01
17.97
9.90
-7.39
-31.96
-58.68
-80.31
-89.55
-81.42
-55.21
-14.99
31.58
75.58
109.46
128.93
133.34
124.76
106.52
82.01
54.32
26.32
0.64
-20.69
-36.88
-48.72
-58.00
-66.53
-74.84
-81.83
-85.39
-83.69
-76.29
-64.47
-50.68
-37.33
-25.88
-16.56
-8.70
-1.51
5.56
12.57
19.38
26.00
32.67
39.58
46.40
52.07
54.98
53.90
48.50
39.82
29.96
21.31
15.63
13.24
13.10
13.39
12.82
11.01
8.62
6.88
6.93
9.20
13.19
17.78
21.88
25.65
29.84
35.19
42.16
50.72
60.63
71.54
83.15
95.16
108.64
123.73
139.12
152.28
160.61
162.61
158.16
148.21
134.13
119.56
107.16
98.08
92.61
91.35
95.89
107.95
128.06
154.58
186.82
221.67
253.91
277.53
287.96
283.67
266.10
238.60
187.25
109.46
14.72
-78.99
-155.67
-208.67
-239.64
-253.87
-256.80
-252.62
-241.15
-222.65
-199.44
-175.51
-154.63
-138.61
-127.16
-118.38
-111.38
-103.80
-95.34
-88.15
-85.83
-91.62
-107.10
-131.32
-161.41
-193.31
-219.97
-234.08
-230.27
-207.31
-168.96
-122.95
-78.38
-42.84
-19.88
-7.79
-2.23
0.80
3.17
4.73
4.68
3.18
1.40
0.96
3.15
7.84
13.48
17.96
19.71
18.64
16.02
13.72
13.28
15.25
18.93
22.81
25.28
25.47
23.68
21.14
19.41
19.57
21.76
25.16
28.41
30.25
30.12
28.41
26.16
24.57
24.64
26.78
30.72
35.29
38.50
38.09
32.27
20.48
3.56
-16.52
-37.69
-58.41
-78.11
-96.72
-113.97
-129.08
-140.94
-148.55
-151.23
-149.10
-141.50
-127.78
-107.64
-81.85
-52.49
-22.87
3.33
22.84
33.38
33.68
23.44
3.84
-21.47
-45.91
-60.86
-58.42
-34.57
8.52
62.64
115.50
154.36
169.61
157.72
122.24
72.98
23.12
-14.98
-33.59
-32.01
-15.89
5.64
24.32
35.87
40.76
42.59
45.27
51.21
60.46
71.26
80.54
84.85
80.86
66.40
41.61
9.51
-24.40
-53.71
-72.56
-78.58
-72.85
-58.59
-39.34
-17.81
4.06
24.58
42.03
54.81
62.05
64.50
64.11
63.25
64.11
67.65
73.27
78.98
82.58
81.09
72.62
56.58
33.78
6.40
-22.63
-50.56
-75.21
-95.03
-109.28
-117.37
-119.19
-115.70
-108.77
-101.13
-95.10
-91.28
-87.63
-80.30
-65.53
-40.75
-9.81
19.81
40.19
46.59
39.27
22.74
3.19
-14.30
-27.19
-35.87
-41.80
-46.50
-50.39
-53.32
-54.82
-54.60
-53.18
-50.08
-44.34
-34.19
-17.69
5.86
34.42
62.82
84.03
91.96
83.96
63.41
38.63
19.00
10.79
15.00
28.05
44.41
59.51
71.57
80.68
87.63
92.62
94.94
93.65
88.53
80.61
70.31
58.14
43.98
27.46
8.49
-12.13
-32.36
-49.19
-59.57
-61.33
-53.21
-36.88
-15.45
7.57
29.32
47.85
62.37
72.13
76.00
72.62
60.71
39.94
10.85
-24.83
-64.47
-104.62
-140.72
-167.17
-178.65
-172.39
-149.42
-115.10
-77.37
-44.00
-19.98
-6.47
-1.67
-2.76
-7.74
-15.48
-25.24
-35.55
-43.90
-47.13
-43.00
-30.12
-9.73
14.18
35.68
49.22
51.85
44.88
33.41
24.42
23.30
31.03
44.44
58.10
67.13
69.02
63.95
53.54
39.59
23.31
5.35
-13.11
-29.73
-41.40
-45.30
-38.88
-22.91
-0.19
25.69
51.29
74.27
93.25
107.98
117.90
121.92
118.58
106.49
84.66
52.48
10.41
-38.80
-89.29
-133.32
-162.88
-172.47
-161.65
-135.59
-103.49
-74.93
-56.32
-49.35
-51.57
-58.58
-66.53
-73.42
-79.01
-83.80
-88.12
-91.64
-93.84
-94.41
-92.94
-89.38
-82.30
-69.64
-49.14
-18.92
21.47
69.66
119.66
162.82
190.92
199.56
190.11
169.30
146.17
128.25
118.40
114.47
111.74
106.40
96.52
82.83
67.25
51.13
34.58
16.94
-1.91
-20.25
-34.73
-41.44
-37.68
-23.03
-0.96
23.37
44.27
56.90
58.37
47.59
25.20
-6.41
-43.10
-78.71
-106.44
-121.38
-122.54
-113.08
-99.21
-87.32
-81.41
-82.33
-88.26
-96.75
-106.09
-115.91
-126.22
-136.46
-145.09
-150.32
-151.26
-148.28
-143.55
-137.48
-129.67
-118.04
-99.91
-72.92
-36.15
9.31
60.54
112.29
158.78
194.60
217.53
226.90
224.84
215.42
202.59
188.45
172.23
151.61
124.37
90.39
52.26
14.81
-16.54
-37.20
-44.60
-38.76
-22.15
0.37
21.40
34.23
35.26
25.25
7.72
-12.59
-34.36
-57.77
-82.80
-107.44
-126.97
-136.57
-134.47
-123.95
-112.37
-107.67
-113.63
-127.88
-143.23
-150.87
-144.28
-121.71
-85.84
-41.64
5.06
50.31
92.38
130.78
165.14
194.38
216.38
229.28
232.21
226.01
213.45
198.20
183.47
171.26
162.30
156.58
153.77
152.62
150.40
142.89
125.33
94.57
51.40
1.13
-47.88
-87.45
-112.72
-123.63
-123.91
-118.70
-112.27
-106.84
-102.94
-100.30
-98.62
-97.68
-97.25
-96.75
-95.59
-93.54
-90.76
-87.95
-86.16
-86.46
-89.31
-93.75
-97.05
-94.94
-83.38
-60.60
-28.63
7.22
40.25
65.25
80.81
88.02
89.80
88.58
85.41
79.96
72.30
63.70
56.49
53.41
55.85
63.78
75.46
87.53
94.93
92.46
76.50
47.68
12.70
-18.51
-35.38
-31.96
-10.22
20.53
48.13
62.99
61.32
47.34
28.38
10.87
-2.55
-13.08
-23.36
-34.77
-46.40
-56.01
-60.94
-60.57
-56.09
-49.56
-42.85
-36.07
-27.91
-17.11
-4.31
7.56
13.63
9.80
-4.15
-24.17
-43.52
-55.86
-58.20
-51.79
-40.79
-29.83
-21.66
-16.34
-12.52
-8.84
-4.79
-0.79
2.46
4.65
6.10
7.73
10.66
15.36
21.29
27.09
30.84
30.72
25.66
15.57
1.09
-16.94
-37.52
-59.29
-79.65
-94.73
-100.23
-93.31
-74.37
-47.46
-19.17
4.48
19.66
26.14
26.38
23.74
20.59
17.71
14.81
11.64
8.74
7.03
7.20
9.06
11.50
13.14
12.87
10.59
7.17
4.00
2.28
2.45
4.10
6.13
7.36
7.04
5.26
2.87
0.90
0.06
0.43
1.37
1.93
1.30
-0.85
-4.24
-8.15
-11.96
-15.47
-18.75
-21.96
-24.81
-26.40
-25.49
-20.98
-12.66
-1.22
12.19
26.71
42.04
57.75
72.50
83.16
85.48
75.91
53.48
20.75
-16.79
-52.83
-81.47
-98.32
-100.82
-88.44
-62.46
-26.42
13.93
51.13
77.17
85.69
73.77
42.81
-0.94
-47.43
-84.88
-103.09
-97.10
-68.81
-26.08
20.68
62.16
92.49
109.03
110.57
96.06
64.78
18.34
-37.24
-91.02
-130.02
-143.32
-126.74
-84.32
-26.80
32.48
81.47
111.80
122.41
117.83
104.68
87.99
70.11
51.32
31.69
13.00
-2.35
-11.19
-11.29
-2.35
13.59
32.57
49.37
58.42
55.00
36.76
5.26
-34.78
-74.57
-105.21
-121.29
-122.46
-112.45
-96.65
-79.58
-63.51
-49.08
-36.33
-25.56
-17.25
-11.49
-7.23
-2.92
2.74
10.21
18.48
25.10
26.62
20.09
4.89
-16.05
-36.68
-49.32
-48.22
-32.82
-8.13
17.35
35.49
42.12
38.10
27.79
16.30
6.82
-0.22
-5.80
-10.63
-14.03
-14.03
-8.68
2.29
17.49
34.23
49.51
61.46
69.89
76.04
81.84
88.85
97.32
106.80
116.37
124.98
131.43
134.06
130.83
119.81
100.05
71.83
37.33
-0.30
-38.10
-74.23
-108.12
-139.72
-168.65
-190.40
-201.61
-200.44
-187.49
-165.65
-138.98
-111.30
-85.16
-61.80
-41.50
-24.85
-12.31
-4.10
0.21
1.79
2.11
2.53
3.79
5.77
7.38
7.66
6.37
4.31
2.90
3.57
7.22
13.77
22.21
30.53
36.42
37.71
32.94
22.18
7.76
-5.75
-12.95
-9.69
4.76
26.42
48.19
63.14
67.58
62.33
51.75
40.99
33.36
29.17
26.43
22.99
18.09
12.93
9.59
9.76
13.62
19.71
25.52
28.45
27.22
22.06
14.70
7.27
1.41
-2.26
-3.86
-3.68
-1.92
1.13
4.35
5.26
0.69
-11.57
-31.02
-53.75
-73.67
-85.34
-86.28
-77.70
-63.29
-47.12
-31.72
-17.87
-5.51
4.98
12.53
16.03
15.62
12.90
10.12
9.29
11.03
14.09
15.97
13.85
5.45
-9.94
-31.17
-54.96
-76.09
-88.51
-87.34
-71.00
-41.94
-7.61
23.43
44.60
53.52
52.09
44.54
34.91
25.27
15.58
5.10
-6.01
-16.17
-23.07
-25.12
-22.26
-15.84
-7.82
0.14
7.61
15.36
24.66
36.48
50.63
65.72
79.65
90.24
96.16
97.35
94.92
90.74
86.80
84.53
84.28
84.97
83.99
78.14
64.72
42.65
13.07
-20.72
-54.33
-83.46
-104.35
-115.46
-117.17
-111.07
-99.35
-84.24
-67.78
-51.81
-37.70
-26.20
-17.63
-11.75
-7.87
-5.27
-3.26
-1.34
0.76
3.28
6.40
10.09
14.18
18.29
21.75
23.68
23.19
19.80
13.71
5.72
-3.05
-11.50
-18.81
-24.69
-29.07
-31.57
-31.94
-29.38
-22.99
-12.56
0.87
15.52
28.47
36.73
38.00
31.04
15.95
-5.74
-30.72
-54.13
-70.17
-74.06
-63.85
-41.72
-13.52
13.60
34.16
46.35
51.85
54.01
55.36
56.33
55.74
52.33
46.53
40.52
37.07
37.71
42.02
48.11
53.58
55.80
52.49
41.80
22.64
-4.54
-37.09
-70.15
-97.85
-115.21
-119.91
-112.50
-95.60
-72.30
-45.39
-17.33
9.23
30.73
43.09
42.47
27.43
0.46
-31.95
-60.23
-75.04
-70.39
-47.11
-11.50
25.13
50.52
56.11
40.37
9.58
-24.92
-51.23
-61.01
-52.90
-31.94
-6.65
16.56
33.73
43.17
44.20
36.34
19.34
-4.93
-31.28
-52.19
-60.72
-53.90
-34.06
-8.08
15.85
31.46
36.67
33.28
24.98
15.25
6.11
-1.54
-7.24
-10.48
-11.08
-9.69
-7.98
-8.12
-11.87
-19.69
-30.14
-40.47
-46.93
-46.10
-35.56
-14.84
13.73
44.76
70.73
84.00
80.35
61.33
33.98
8.03
-8.41
-12.36
-6.80
1.73
6.98
6.30
1.38
-3.60
-4.58
0.10
9.20
19.40
27.16
29.88
26.34
17.12
4.37
-8.15
-15.61
-13.42
1.12
26.95
58.38
86.33
100.90
94.82
66.51
21.51
-29.02
-71.75
-95.67
-95.62
-73.70
-37.92
1.15
33.28
52.87
59.45
56.04
46.36
33.22
18.06
1.91
-13.82
-26.80
-34.28
-34.75
-28.99
-20.26
-12.82
-10.42
-14.57
-24.28
-36.15
-45.93
-50.29
-47.55
-37.72
-21.65
-0.63
23.55
47.92
68.20
79.47
78.54
65.89
46.00
25.76
11.30
5.50
7.21
12.85
19.01
24.43
30.05
37.39
46.77
56.30
62.40
61.63
52.33
35.35
13.44
-9.80
-31.68
-50.94
-68.29
-85.54
-104.42
-125.77
-149.24
-173.65
-197.12
-217.33
-230.60
-233.29
-222.83
-199.13
-165.80
-128.07
-91.57
-60.00
-33.68
-9.82
14.85
41.87
69.91
95.40
115.05
127.83
135.46
141.23
148.20
157.62
168.70
178.97
185.40
184.03
171.55
146.50
110.32
67.58
25.00
-10.90
-36.40
-51.48
-59.42
-64.55
-70.11
-76.59
-81.71
-81.61
-72.74
-53.51
-25.07
8.77
42.81
72.14
93.74
107.58
116.05
122.45
128.95
135.22
138.30
134.31
120.50
97.18
68.04
38.87
15.39
0.94
-4.38
-4.00
-2.43
-3.32
-8.18
-16.25
-25.75
-35.22
-44.58
-54.66
-66.21
-78.72
-90.01
-96.97
-96.61
-87.73
-70.76
-49.33
-27.58
-8.84
5.18
15.19
22.52
28.10
31.57
31.27
24.73
10.30
-11.86
-39.45
-68.45
-94.62
-114.34
-125.69
-128.52
-124.25
-114.98
-102.98
-90.65
-80.01
-72.01
-65.51
-57.42
-43.82
-21.26
8.71
41.16
69.06
86.34
90.46
83.34
69.87
55.41
43.37
34.54
28.08
22.71
17.77
13.44
10.31
8.65
8.34
8.83
9.93
12.24
17.06
25.88
39.27
55.63
70.87
79.39
76.12
58.88
29.83
-5.41
-39.77
-67.55
-85.99
-95.48
-98.21
-96.71
-92.86
-87.73
-82.38
-78.01
-75.61
-75.28
-75.78
-74.98
-70.91
-62.56
-49.82
-33.64
-14.98
5.46
27.03
48.83
69.56
87.91
102.83
113.71
119.41
118.12
107.51
86.07
54.76
17.81
-18.20
-47.50
-65.47
-71.42
-68.12
-59.56
-48.23
-33.45
-12.08
19.38
61.68
111.95
163.78
209.33
241.73
256.70
253.43
234.23
203.85
167.59
130.70
96.98
68.43
45.19
25.99
8.96
-7.91
-25.86
-46.21
-69.33
-94.95
-122.11
-149.53
-175.73
-199.42
-220.01
-232.53
-233.41
-221.16
-197.47
-166.28
-131.88
-97.30
-64.35
-36.75
-15.40
-2.40
0.55
-6.04
-18.51
-31.00
-37.31
-31.62
-13.45
12.14
36.08
51.02
54.49
50.00
41.12
29.42
14.75
-3.36
-23.13
-40.35
-48.84
-43.58
-23.55
7.24
41.34
70.15
85.80
82.91
58.77
13.97
-47.24
-116.89
-184.09
-236.72
-264.49
-262.07
-230.51
-177.05
-112.78
-49.49
3.15
39.56
59.06
65.19
63.90
61.57
63.07
70.57
83.44
99.10
114.55
127.66
137.39
143.23
144.39
139.69
128.33
111.01
90.66
71.77
58.93
54.70
58.38
66.38
73.70
76.04
71.46
60.68
46.35
31.57
18.73
8.86
2.05
-2.34
-4.90
-5.69
-4.32
-0.54
4.87
9.86
11.68
8.51
0.10
-11.44
-22.03
-26.96
-22.82
-8.95
12.32
36.70
60.01
78.13
87.92
87.94
79.02
64.62
50.47
43.47
49.58
71.91
107.19
145.87
175.22
183.87
166.14
123.53
63.62
-7.18
-77.61
-136.35
-176.23
-196.13
-199.19
-189.08
-168.73
-141.09
-110.07
-80.11
-56.62
-44.26
-44.17
-53.95
-67.57
-77.25
-76.08
-60.48
-31.41
3.85
34.56
50.89
48.43
29.81
2.54
-25.25
-48.34
-65.50
-78.84
-91.09
-103.33
-114.45
-121.75
-122.73
-116.23
-102.56
-83.14
-60.31
-37.24
-17.95
-6.97
-8.58
-25.35
-56.77
-98.47
-142.86
-181.03
-205.04
-210.01
-194.10
-159.88
-113.36
-61.85
-11.81
32.65
70.05
101.10
127.79
152.56
177.65
204.95
235.58
269.27
304.01
336.36
362.43
379.26
385.80
383.02
373.42
360.07
345.58
331.61
318.88
307.42
296.83
286.26
274.35
259.29
239.21
212.60
178.75
138.02
91.80
42.26
-8.19
-57.40
-103.98
-147.52
-188.48
-227.65
-265.18
-299.86
-328.84
-348.41
-355.31
-348.25
-328.60
-300.09
-267.63
-235.65
-206.95
-182.25
-160.76
-140.92
-121.38
-101.57
-81.85
-63.59
-48.61
-38.87
-35.73
-39.62
-49.79
-64.62
-81.90
-99.28
-114.74
-126.57
-133.53
-134.94
-130.78
-121.79
-109.26
-94.56
-78.44
-61.16
-42.02
-19.80
6.62
37.63
72.62
110.10
148.04
184.33
215.98
239.71
252.10
250.16
232.21
198.79
153.44
102.48
53.90
14.03
-13.43
-28.15
-32.59
-30.63
-26.39
-23.26
-23.74
-29.59
-43.69
-68.39
-104.40
-149.86
-200.53
-251.16
-297.21
-335.89
-356.78
-352.96
-322.71
-271.36
-209.31
-147.03
-91.04
-43.13
-1.98
34.82
67.59
95.49
117.21
131.87
139.15
139.52
133.12
120.52
103.72
85.67
70.80
63.66
67.53
81.56
100.04
114.76
119.25
111.62
94.15
71.88
49.69
30.51
14.88
2.00
-9.04
-18.07
-24.52
-27.61
-27.08
-23.52
-17.70
-9.93
0.30
13.79
30.52
48.19
61.71
64.62
51.32
20.36
-24.32
-74.67
-121.66
-158.88
-184.58
-201.11
-210.85
-215.69
-214.90
-205.32
-183.21
-146.61
-96.78
-38.25
22.74
80.22
129.45
168.19
196.44
215.67
228.17
236.70
244.53
255.41
272.69
297.17
326.13
353.25
370.26
369.96
348.99
309.07
256.22
198.07
140.38
85.96
35.04
-13.08
-58.76
-101.76
-141.69
-178.14
-208.65
-230.29
-240.68
-238.98
-225.76
-202.38
-171.14
-135.40
-99.23
-66.88
-42.70
-28.94
-26.24
-33.01
-45.33
-57.73
-64.37
-60.93
-45.24
-19.96
7.98
30.44
42.18
42.64
34.91
23.32
10.85
-1.54
-14.39
-27.77
-40.11
-48.33
-49.25
-41.79
-27.30
-9.98
3.98
8.29
-0.85
-22.77
-51.83
-79.21
-96.27
-97.79
-84.07
-60.41
-34.59
-13.46
-0.62
3.86
2.01
-4.70
-15.27
-29.24
-45.78
-62.83
-76.80
-83.43
-79.43
-63.97
-39.17
-9.24
20.97
47.70
69.28
86.08
99.44
110.36
118.76
123.39
122.81
116.15
103.90
88.13
71.93
58.50
49.98
46.89
47.87
50.32
51.31
48.63
41.56
31.10
19.38
8.71
0.63
-4.57
-7.67
-9.82
-11.95
-14.46
-17.32
-20.49
-24.19
-28.75
-34.36
-40.54
-46.23
-50.08
-50.96
-48.56
-43.48
-37.02
-30.69
-25.80
-23.00
-22.20
-22.63
-23.07
-22.35
-19.65
-14.89
-8.74
-2.39
2.93
6.45
7.99
7.92
6.87
5.35
3.51
1.26
-1.65
-5.40
-10.08
-15.69
-22.12
-29.15
-36.24
-42.49
-46.80
-48.04
-45.45
-38.98
-29.40
-18.25
-7.48
1.04
5.94
6.77
4.12
-0.58
-5.58
-9.49
-11.93
-13.59
-15.92
-20.45
-28.02
-38.23
-49.25
-58.09
-61.36
-56.37
-42.14
-20.18
5.61
30.03
48.28
57.73
58.88
54.92
50.22
48.38
50.64
55.18
57.64
52.75
36.39
7.42
-31.13
-71.99
-104.87
-119.01
-107.43
-70.23
-15.81
41.31
85.44
105.79
100.83
78.82
54.48
42.21
50.87
81.90
130.77
190.09
252.41
311.09
359.83
392.47
402.53
385.18
339.99
272.09
190.98
107.68
31.33
-35.87
-91.07
-132.00
-157.49
-167.82
-164.96
-151.78
-131.46
-107.15
-81.80
-57.72
-36.37
-19.52
-8.87
-5.81
-11.34
-25.93
-49.52
-80.81
-116.82
-154.83
-192.70
-227.85
-256.07
-271.69
-268.86
-244.37
-199.84
-141.95
-80.91
-26.98
13.10
37.66
48.81
50.70
47.21
41.07
34.07
27.87
24.33
25.16
30.37
36.79
38.58
29.76
6.71
-29.36
-71.98
-111.41
-138.15
-144.49
-130.59
-102.22
-67.37
-32.67
-1.55
25.27
47.95
66.28
79.26
85.65
85.86
82.13
77.76
75.98
78.33
83.98
90.41
94.47
93.39
86.82
75.95
62.86
49.79
37.81
26.25
13.65
-1.77
-21.45
-45.75
-73.51
-101.71
-125.53
-137.89
-134.39
-114.12
-80.87
-42.60
-8.56
14.34
24.04
23.49
18.21
12.93
9.67
7.31
3.40
-3.80
-13.71
-24.00
-31.90
-35.78
-35.31
-30.87
-22.81
-11.76
0.71
11.66
17.44
15.33
5.32
-9.22
-22.23
-27.99
-23.85
-11.20
5.67
22.13
35.35
44.97
52.05
57.79
62.37
64.96
64.79
61.88
57.29
52.67
49.71
49.31
51.62
56.05
61.34
66.17
69.45
70.51
69.35
66.27
61.70
56.14
49.47
41.13
29.99
15.02
-4.25
-27.11
-52.48
-79.02
-105.10
-128.52
-146.14
-154.14
-149.19
-130.80
-101.12
-65.84
-32.08
-5.51
11.50
20.00
22.83
22.60
20.37
15.98
8.99
0.10
-8.34
-13.17
-11.55
-2.23
14.57
36.63
59.62
77.79
85.52
79.71
60.92
33.56
3.83
-22.90
-44.10
-60.58
-75.07
-90.01
-105.43
-119.16
-128.01
-129.43
-122.70
-108.80
-89.53
-65.68
-39.37
-12.06
14.87
39.91
61.66
78.66
89.66
94.32
92.53
84.30
70.07
50.12
24.21
-8.14
-47.44
-92.21
-138.04
-177.91
-204.06
-210.82
-197.46
-169.89
-135.48
-102.00
-74.08
-51.74
-31.38
-8.60
19.25
51.63
84.94
115.41
140.42
159.30
172.79
182.02
187.68
190.14
189.73
187.61
185.53
184.22
182.29
175.99
160.61
133.11
94.52
50.23
8.40
-23.46
-41.77
-47.77
-46.08
-41.75
-38.02
-35.39
-32.88
-29.42
-25.02
-20.78
-18.09
-17.68
-19.15
-21.23
-22.13
-20.49
-15.87
-9.06
-1.52
5.04
9.37
10.97
9.90
5.99
-1.19
-11.88
-25.26
-38.87
-49.07
-52.49
-47.56
-36.10
-22.47
-11.59
-6.72
-8.45
-15.00
-23.73
-32.60
-40.60
-47.51
-53.05
-56.62
-57.57
-56.11
-53.56
-51.69
-51.91
-54.17
-56.79
-57.04
-52.09
-39.83
-19.43
8.25
40.29
71.45
95.42
106.63
102.57
85.18
60.37
35.69
17.27
7.58
5.13
6.62
9.10
11.40
14.00
17.60
21.94
25.49
26.59
24.63
20.90
17.73
17.47
21.32
28.38
36.17
41.59
41.67
34.57
20.08
-0.01
-21.86
-40.34
-50.56
-49.54
-38.27
-21.35
-5.10
5.18
7.36
2.95
-4.29
-10.75
-14.71
-16.71
-18.31
-20.64
-23.52
-25.73
-26.04
-24.15
-21.05
-18.14
-16.95
-18.11
-21.08
-24.67
-27.52
-28.81
-28.51
-27.42
-26.59
-26.95
-28.83
-31.92
-35.58
-39.10
-42.13
-44.70
-47.19
-50.05
-53.45
-57.16
-60.46
-62.44
-62.40
-59.67
-54.02
-45.62
-34.90
-22.48
-9.04
4.74
18.18
30.62
41.54
50.58
57.66
62.86
66.42
68.57
69.50
69.35
68.18
66.21
63.83
61.61
60.24
60.27
61.90
64.98
69.00
73.17
76.79
79.37
80.79
81.27
81.20
80.97
80.75
80.55
79.90
78.16
74.63
68.87
61.19
53.05
46.83
44.98
48.43
54.90
58.87
53.13
31.57
-8.07
-62.97
-125.46
-184.99
-230.48
-252.64
-245.59
-208.00
-144.50
-65.79
12.77
74.61
106.80
104.15
70.26
14.57
-49.59
-110.01
-157.38
-186.73
-197.65
-192.79
-175.73
-149.63
-117.23
-81.12
-44.46
-10.53
17.95
39.37
52.98
58.66
57.25
49.92
39.23
29.30
25.25
31.07
47.59
70.96
93.76
107.81
107.99
94.49
71.89
46.45
23.01
3.54
-12.13
-24.59
-33.54
-37.16
-33.30
-20.85
-0.35
26.41
56.92
88.57
118.92
144.97
163.33
170.84
165.51
147.22
117.51
78.83
32.63
-18.37
-70.61
-119.45
-159.11
-183.68
-188.98
-174.24
-142.41
-99.54
-52.68
-8.10
30.09
60.01
81.85
97.17
108.45
118.26
127.47
133.81
131.70
114.47
77.59
21.44
-48.00
-120.81
-184.41
-227.03
-242.20
-231.00
-200.37
-158.69
-112.38
-65.28
-20.07
20.81
54.58
78.86
92.78
97.75
97.31
95.63
96.15
100.23
107.62
116.49
124.06
127.90
126.82
121.57
113.65
104.95
96.57
89.32
83.25
77.05
69.09
58.01
43.35
25.75
6.59
-13.47
-33.33
-52.18
-70.54
-89.29
-109.65
-132.82
-160.16
-192.83
-232.46
-278.57
-322.58
-355.96
-370.94
-363.27
-333.82
-288.75
-230.09
-166.00
-105.05
-52.87
-11.71
19.12
40.81
54.05
59.26
57.63
50.26
39.69
28.42
17.40
6.60
-4.86
-17.48
-30.79
-43.32
-54.42
-62.04
-64.11
-59.60
-48.28
-30.53
-6.83
22.25
56.20
92.31
127.73
159.75
186.02
205.11
216.70
221.63
221.44
217.80
211.67
203.74
194.36
183.68
172.02
159.96
148.29
137.81
129.24
123.36
121.01
122.07
124.44
123.68
114.19
91.63
55.47
10.22
-35.84
-73.72
-97.51
-106.26
-103.73
-95.83
-87.69
-81.90
-78.27
-75.03
-70.35
-63.63
-55.14
-45.86
-36.89
-29.19
-23.53
-20.82
-22.06
-27.89
-37.79
-49.20
-57.82
-59.00
-49.60
-30.53
-6.62
15.61
30.56
35.84
33.02
26.48
20.89
18.88
19.63
19.31
13.28
-1.79
-26.11
-56.18
-85.87
-108.43
-118.86
-115.12
-100.07
-78.44
-54.73
-31.79
-10.76
7.87
23.65
35.74
43.37
46.38
45.90
43.40
39.99
35.88
29.95
20.14
4.45
-17.55
-43.44
-67.78
-83.72
-85.67
-72.10
-46.57
-16.51
9.84
26.79
33.09
31.45
26.45
21.78
18.98
17.56
16.32
14.56
12.48
11.00
10.81
11.92
13.75
15.41
16.18
15.80
14.46
12.62
10.83
9.56
9.16
9.80
11.40
13.61
15.81
17.18
17.01
15.09
11.90
8.66
6.89
7.73
11.39
16.83
22.15
25.10
24.15
19.11
11.35
3.50
-1.42
-0.77
6.31
17.95
28.96
32.05
20.09
-10.80
-58.61
-114.73
-165.47
-196.46
-197.76
-168.29
-116.71
-58.55
-10.11
17.23
20.45
4.94
-18.65
-38.72
-46.69
-39.02
-17.40
12.92
45.04
72.16
89.05
93.47
86.71
72.96
57.94
45.79
38.01
33.42
27.93
17.36
0.08
-21.32
-40.45
-49.53
-42.78
-19.20
16.75
56.50
90.54
111.29
114.76
100.96
73.31
37.50
0.42
-31.46
-53.57
-64.15
-64.33
-57.07
-45.96
-34.15
-23.92
-16.59
-12.70
-11.98
-13.15
-14.24
-13.16
-8.79
-1.40
7.07
13.91
16.75
14.42
7.42
-2.54
-13.27
-22.93
-30.45
-35.61
-38.51
-39.05
-36.66
-30.22
-18.82
-2.52
17.17
37.45
55.11
67.59
73.87
74.41
70.49
63.20
52.78
38.83
21.11
0.44
-20.99
-40.02
-53.70
-60.22
-59.57
-53.34
-43.96
-33.80
-24.43
-16.30
-8.97
-1.81
5.37
11.95
16.62
17.95
15.11
8.46
-0.24
-8.22
-12.71
-11.87
-5.49
4.96
16.99
28.20
37.27
44.43
50.99
58.10
65.88
73.16
78.25
80.07
79.00
76.67
75.32
76.52
80.15
84.66
87.93
88.30
84.88
77.27
64.72
46.40
21.68
-9.56
-46.17
-85.84
-125.94
-164.82
-202.28
-238.94
-274.19
-304.62
-324.80
-328.86
-313.26
-279.00
-232.15
-180.16
-131.81
-94.42
-68.63
-51.18
-38.32
-27.35
-16.65
-4.33
13.20
40.70
82.63
139.86
206.91
272.62
323.36
347.78
340.52
303.72
245.88
179.49
117.85
72.28
50.68
56.47
87.96
138.15
195.94
248.52
284.65
296.72
281.73
240.90
178.60
101.54
17.91
-63.41
-133.86
-185.24
-212.60
-215.64
-198.65
-169.21
-135.66
-104.76
-80.16
-63.26
-51.84
-43.24
-35.79
-29.25
-24.63
-23.70
-28.15
-39.03
-55.20
-73.38
-88.67
-95.24
-87.89
-63.94
-24.58
24.81
75.37
116.95
140.33
139.17
111.58
60.40
-7.79
-84.50
-161.56
-232.33
-291.50
-334.08
-355.34
-351.90
-323.70
-275.76
-217.54
-159.98
-111.61
-75.69
-49.84
-29.01
-8.84
12.02
31.88
48.07
59.18
66.08
71.76
80.51
96.33
121.63
156.05
196.12
235.57
266.71
282.72
278.07
252.56
211.82
165.41
123.18
91.46
71.42
60.41
54.65
51.68
51.29
54.09
59.87
67.34
74.70
80.43
83.78
84.65
82.69
77.32
67.74
52.58
30.88
2.64
-31.04
-68.11
-106.57
-144.24
-179.16
-210.20
-237.93
-263.14
-285.83
-304.35
-312.29
-304.10
-276.41
-229.83
-166.51
-95.31
-27.97
25.36
59.55
75.14
75.91
66.67
51.56
34.04
16.62
1.76
-8.61
-13.94
-15.20
-14.85
-15.16
-17.67
-21.39
-23.81
-21.25
-9.88
12.87
46.86
88.02
128.93
159.70
171.81
161.59
132.48
93.89
57.10
30.59
17.08
