1660237071.00
64.000000
-0.00
-0.00
-0.00
-0.00
-0.00
-0.00
-0.00
-0.00
-0.00
-0.00
0.00
0.01
0.01
-0.00
-0.03
-0.05
-0.05
0.00
0.13
0.36
0.66
1.01
1.37
1.72
2.06
2.40
2.79
3.24
3.80
4.42
5.06
5.66
6.20
6.68
7.15
7.68
8.31
9.14
10.09
11.04
11.88
12.56
13.14
13.76
14.65
15.96
17.91
20.32
22.90
25.38
27.58
29.57
31.68
34.32
37.81
42.54
48.15
54.10
59.83
64.97
69.58
74.14
79.34
85.71
93.76
103.00
112.62
121.73
129.77
136.75
143.30
150.75
157.77
166.64
177.95
191.79
206.97
220.57
228.25
225.36
208.53
176.87
132.76
80.05
23.07
-34.94
-92.44
-149.16
-205.23
-260.37
-313.74
-363.87
-409.83
-450.91
-486.50
-515.74
-537.23
-549.22
-549.96
-538.37
-514.21
-478.67
-433.88
-382.45
-327.02
-269.84
-212.63
-156.66
-102.95
-52.37
-5.90
35.58
71.43
101.35
125.50
144.38
158.69
169.15
176.37
180.75
182.57
182.07
179.51
175.23
169.65
163.18
156.15
148.81
141.30
133.69
126.02
118.33
110.69
103.16
95.81
88.68
81.82
75.24
68.95
62.96
57.27
51.89
46.81
42.02
37.52
33.31
29.39
25.79
22.50
19.52
16.83
14.39
12.19
10.19
8.39
6.80
5.44
4.31
3.39
2.62
1.97
1.36
0.77
0.21
-0.28
-0.65
-0.87
-0.95
-0.97
-1.06
-1.30
-1.74
-2.32
-2.90
-3.33
-3.48
-3.38
-3.20
-3.17
-3.50
-4.28
-5.40
-6.56
-7.46
-7.86
-7.79
-7.51
-7.44
-7.94
-9.15
-10.91
-12.78
-14.28
-15.09
-15.21
-14.91
-14.65
-14.86
-15.86
-17.85
-20.84
-24.43
-27.69
-29.19
-27.39
-21.37
-11.44
0.72
12.55
21.61
26.49
27.32
25.46
22.77
20.77
20.20
21.09
23.11
25.92
29.27
32.92
36.51
39.53
41.42
41.81
40.69
38.45
35.78
33.36
31.64
30.64
29.92
28.84
26.81
23.56
19.28
14.52
9.96
5.85
2.13
-1.58
-5.64
-10.16
-14.78
-18.88
-21.85
-23.40
-23.71
-23.28
-22.74
-22.52
-22.82
-23.57
-24.50
-25.29
-25.60
-25.08
-23.49
-20.71
-16.82
-12.15
-7.17
-2.42
1.67
4.82
6.91
7.92
7.93
7.06
5.47
3.46
1.58
0.55
1.07
3.54
7.78
12.97
17.95
21.59
23.24
22.86
21.03
18.50
16.01
13.93
12.53
11.96
12.36
13.67
15.51
17.11
17.56
16.15
12.62
7.44
1.63
-3.57
-7.08
-8.29
-7.14
-4.00
1.14
7.64
14.64
21.21
26.56
30.26
32.26
32.82
32.16
30.22
26.44
20.09
10.73
-1.39
-14.96
-27.74
-37.02
-40.39
-36.51
-25.69
-9.72
8.48
25.71
39.21
47.27
49.39
46.10
38.54
27.93
15.31
1.38
-13.40
-28.68
-44.11
-59.31
-73.86
-87.35
-99.39
-109.51
-117.13
-121.60
-122.25
-118.59
-110.44
-97.93
-81.52
-61.93
-40.16
-17.48
4.49
23.97
39.27
49.13
53.06
51.37
45.11
35.76
24.93
14.13
4.63
-2.64
-7.23
-9.16
-9.00
-7.64
-5.96
-4.51
-3.30
-1.86
0.41
3.87
8.28
12.86
16.62
18.68
18.57
16.37
12.64
8.29
4.45
2.39
3.23
7.76
16.02
27.25
40.01
52.49
63.05
70.54
74.43
74.55
70.82
63.10
51.28
35.64
17.06
-2.91
-22.40
-39.72
-53.83
-64.50
-72.13
-77.32
-80.49
-81.76
-81.07
-78.43
-74.24
-69.22
-64.24
-59.97
-56.80
-54.75
-53.69
-53.48
-54.01
-55.25
-57.12
-59.40
-61.84
-64.07
-65.69
-66.24
-65.28
-62.43
-57.50
-50.52
-41.75
-31.45
-19.74
-6.52
8.43
25.15
43.20
61.57
78.89
93.72
105.07
112.64
116.90
118.86
119.64
120.19
120.90
121.70
122.14
121.69
120.03
117.14
113.38
109.28
105.39
102.08
99.31
96.63
93.10
87.53
78.74
65.90
48.70
27.42
2.85
-23.82
-51.06
-77.12
-100.17
-118.57
-131.19
-137.76
-138.83
-135.50
-128.85
-119.51
-107.41
-92.04
-72.93
-50.14
-24.51
2.42
28.82
52.97
73.52
89.59
100.70
106.62
107.30
102.99
94.30
82.23
68.10
53.31
38.98
25.63
13.04
0.47
-12.91
-27.46
-42.79
-57.75
-70.88
-80.94
-87.43
-90.63
-91.40
-90.64
-88.95
-86.42
-82.72
-77.24
-69.36
-58.68
-45.10
-28.89
-10.60
9.12
29.54
49.94
69.54
87.34
102.21
112.98
118.71
119.01
114.19
105.15
93.09
79.10
63.83
47.46
29.95
11.37
-7.74
-26.32
-43.06
-56.79
-66.86
-73.28
-76.43
-76.77
-74.56
-69.89
-62.95
-54.26
-44.71
-35.26
-26.57
-18.52
-10.28
-0.58
11.63
26.59
43.39
60.07
74.15
83.46
86.83
84.41
77.47
67.86
57.37
47.24
37.86
28.95
19.81
9.70
-1.78
-14.54
-27.95
-41.05
-52.78
-62.32
-69.30
-73.80
-76.22
-77.07
-76.84
-75.89
-74.51
-72.94
-71.37
-69.87
-68.38
-66.82
-65.06
-63.10
-61.12
-59.44
-58.37
-58.16
-58.85
-60.26
-62.03
-63.72
-64.84
-64.99
-63.88
-61.41
-57.72
-53.13
-48.13
-43.21
-38.90
-35.58
-33.45
-32.42
-31.99
-31.28
-29.27
-25.05
-18.18
-8.95
1.85
13.11
23.92
33.79
42.62
50.54
57.63
63.74
68.57
71.82
73.39
73.47
72.43
70.69
68.53
66.02
63.09
59.58
55.48
50.90
46.11
41.45
37.18
33.37
29.88
26.39
22.56
18.16
13.22
8.00
2.87
-1.85
-6.04
-9.80
-13.41
-17.17
-21.40
-26.30
-31.88
-37.92
-43.83
-48.70
-51.51
-51.41
-48.00
-41.51
-32.68
-22.47
-11.80
-1.32
8.58
17.72
26.00
33.35
39.72
45.07
49.37
52.60
54.73
55.81
55.88
55.06
53.42
51.01
47.92
44.33
40.57
37.09
34.32
32.48
31.42
30.64
29.37
26.91
22.86
17.33
10.96
4.70
-0.56
-4.32
-6.74
-8.49
-10.46
-13.35
-17.36
-22.17
-27.13
-31.60
-35.16
-37.63
-38.96
-39.07
-37.79
-35.05
-31.05
-26.52
-22.66
-20.79
-21.88
-26.09
-32.61
-39.93
-46.36
-50.65
-52.15
-50.65
-46.07
-38.41
-28.07
-16.34
-5.54
1.65
3.31
-0.68
-8.55
-17.70
-26.32
-34.49
-44.04
-57.06
-74.07
-92.92
-109.21
-118.00
-115.86
-102.20
-79.27
-51.09
-22.05
4.22
25.32
40.05
48.06
49.71
46.09
38.97
30.75
23.95
20.65
21.93
27.68
36.77
47.50
58.18
67.49
74.56
79.09
81.21
81.56
81.01
80.46
80.40
80.67
80.50
78.83
74.91
68.64
60.53
51.39
41.85
32.16
22.19
11.82
1.18
-9.25
-18.86
-27.20
-34.15
-39.90
-44.65
-48.41
-50.95
-52.02
-51.70
-50.61
-49.68
-49.71
-50.86
-52.47
-53.24
-51.86
-47.63
-40.71
-32.04
-22.91
-14.41
-7.19
-1.39
3.25
7.20
10.98
14.97
19.29
23.65
27.47
30.09
31.09
30.61
29.30
27.99
27.30
27.30
27.48
27.13
25.78
23.49
20.79
18.38
16.69
15.68
14.87
13.66
11.65
8.83
5.52
2.23
-0.59
-2.72
-4.17
-5.19
-6.16
-7.54
-9.73
-12.97
-17.11
-21.60
-25.43
-27.40
-26.40
-21.79
-13.67
-2.94
8.93
20.33
30.07
37.71
43.71
49.07
54.85
61.63
69.19
76.60
82.75
86.82
88.75
89.20
89.20
89.72
91.19
93.50
96.20
98.82
101.12
103.13
105.04
107.09
109.69
113.61
120.01
130.13
144.53
162.37
181.03
196.60
205.06
203.57
191.40
169.89
141.65
109.47
75.63
41.81
9.48
-19.71
-44.00
-61.98
-73.29
-78.79
-80.45
-80.47
-80.58
-81.51
-83.08
-84.62
-85.58
-85.84
-85.81
-86.09
-87.14
-88.99
-91.22
-93.16
-94.16
-93.92
-92.57
-90.57
-88.40
-86.36
-84.34
-81.92
-78.63
-74.19
-68.71
-62.64
-56.61
-51.22
-46.84
-43.62
-41.50
-40.30
-39.82
-39.82
-40.05
-40.26
-40.12
-39.28
-37.30
-33.88
-28.93
-22.79
-16.19
-10.08
-5.32
-2.28
-0.75
-0.01
0.82
2.40
4.88
7.92
10.87
13.08
14.08
13.74
12.18
9.69
6.70
3.63
0.88
-1.32
-2.96
-4.26
-5.59
-7.33
-9.68
-12.53
-15.51
-18.17
-20.23
-21.72
-22.92
-24.28
-26.12
-28.48
-31.20
-34.00
-36.77
-39.67
-43.07
-47.24
-52.05
-56.78
-60.23
-61.06
-58.20
-51.21
-40.33
-26.38
-10.47
6.25
22.91
39.02
54.57
69.88
85.42
101.50
118.13
134.96
151.36
166.41
178.99
187.73
191.33
188.92
180.58
167.62
152.38
137.46
124.82
115.02
107.24
99.81
91.08
80.18
67.15
52.65
37.47
22.09
6.67
-8.80
-24.22
-39.20
-53.21
-65.72
-76.46
-85.46
-92.87
-98.76
-102.95
-105.08
-104.79
-101.95
-96.86
-90.23
-83.03
-76.33
-71.06
-67.82
-66.80
-67.74
-70.06
-73.02
-75.94
-78.37
-80.13
-81.37
-82.59
-84.71
-88.96
-96.47
-107.52
-120.94
-133.94
-142.86
-144.60
-137.89
-124.02
-106.10
-87.76
-71.53
-58.23
-47.31
-37.92
-29.89
-23.93
-21.09
-21.87
-25.76
-31.28
-36.72
-40.84
-43.16
-43.88
-43.32
-41.51
-38.06
-32.34
-23.95
-12.98
-0.10
13.61
26.94
38.89
48.73
56.01
60.50
62.21
61.44
58.81
55.25
51.72
49.04
47.65
47.53
48.36
49.73
51.36
53.06
54.72
56.14
56.97
56.85
55.64
53.57
51.26
49.49
48.85
49.44
50.82
52.11
52.44
51.26
48.55
44.75
40.55
36.59
33.24
30.54
28.26
26.09
23.77
21.21
18.51
15.85
13.46
11.50
9.99
8.84
7.91
7.00
6.02
4.96
3.93
3.07
2.42
1.86
1.19
0.12
-1.52
-3.75
-6.44
-9.33
-12.18
-14.81
-17.12
-19.22
-21.26
-23.48
-26.07
-29.06
-32.27
-35.39
-38.19
-40.63
-43.04
-45.91
-49.63
-54.15
-58.79
-62.41
-63.72
-61.87
-56.66
-48.70
-39.01
-28.65
-18.36
-8.48
0.89
9.54
17.04
22.85
26.56
28.24
28.37
27.68
26.71
25.62
24.18
22.10
19.32
16.12
13.02
10.40
8.28
6.28
3.91
0.81
-2.94
-6.88
-10.42
-13.16
-15.13
-16.71
-18.44
-20.72
-23.66
-27.12
-30.96
-35.16
-39.85
-45.07
-50.55
-55.59
-59.20
-60.45
-58.87
-54.60
-48.25
-40.71
-32.80
-25.12
-18.12
-12.08
-7.20
-3.55
-1.08
0.41
1.20
1.55
1.66
1.60
1.37
0.79
-0.45
-2.77
-6.54
-11.84
-18.24
-24.81
-30.33
-33.73
-34.55
-33.11
-30.34
-27.27
-24.46
-21.75
-18.35
-13.55
-7.18
-0.07
6.25
10.16
10.64
7.67
2.22
-4.23
-10.23
-14.70
-17.02
-16.95
-14.44
-9.61
-2.81
5.35
14.01
22.26
29.32
34.74
38.43
40.59
41.58
41.77
41.52
41.09
40.66
40.35
40.15
39.95
39.55
38.73
37.28
35.11
32.26
28.84
25.02
20.96
16.79
12.63
8.59
4.78
1.24
-2.10
-5.46
-9.09
-13.15
-17.54
-21.80
-25.23
-27.11
-26.96
-24.71
-20.73
-15.68
-10.25
-4.96
-0.11
4.29
8.33
12.22
16.10
20.02
23.86
27.39
30.24
32.09
32.70
32.07
30.41
28.07
25.41
22.65
19.85
16.98
14.00
10.95
8.02
5.36
3.02
0.87
-1.36
-3.89
-6.82
-10.06
-13.43
-16.84
-20.35
-24.13
-28.36
-33.05
-37.89
-42.27
-45.40
-46.52
-45.14
-41.18
-35.02
-27.36
-19.04
-10.72
-2.79
4.68
11.82
18.74
25.45
31.79
37.52
42.41
46.36
49.30
51.28
52.35
52.67
52.46
52.01
51.66
51.63
51.98
52.63
53.41
54.13
54.66
54.91
54.77
54.04
52.42
49.57
45.23
39.37
32.36
24.93
18.07
12.78
9.85
9.62
12.13
17.28
25.08
35.70
49.46
66.63
87.23
110.80
136.27
161.91
185.31
203.81
215.09
217.85
212.34
200.27
184.27
166.91
149.88
133.60
117.40
100.12
80.82
59.18
35.60
11.16
-12.79
-34.83
-53.96
-69.82
-82.82
-93.94
-104.24
-114.38
-124.31
-133.42
-141.04
-146.92
-151.51
-155.62
-159.70
-163.33
-165.06
-162.99
-155.85
-143.69
-128.13
-111.54
-96.03
-82.44
-70.17
-57.70
-43.72
-27.99
-11.64
3.38
15.17
22.79
26.51
27.43
26.76
25.18
22.64
18.65
12.89
5.63
-2.20
-9.42
-15.13
-19.10
-21.74
-23.84
-26.13
-28.99
-32.44
-36.29
-40.32
-44.38
-48.43
-52.55
-56.87
-61.51
-66.54
-71.81
-76.79
-80.65
-82.39
-81.22
-76.84
-69.56
-60.16
-49.60
-38.69
-27.89
-17.41
-7.34
2.14
10.76
18.24
24.50
29.77
34.52
39.16
43.79
48.04
51.23
52.70
52.23
50.31
48.09
47.00
48.22
52.25
58.68
66.40
73.99
80.27
84.76
87.92
90.79
94.51
99.63
105.76
111.61
115.58
116.28
113.04
105.93
95.52
82.69
68.54
54.58
42.66
34.64
31.47
32.59
35.65
37.15
33.69
23.31
6.26
-15.17
-37.59
-58.30
-75.71
-89.62
-100.84
-110.39
-118.84
-126.12
-131.70
-135.17
-137.53
-140.41
-145.81
-155.18
-168.52
-184.03
-198.50
-208.41
-211.25
-207.91
-201.19
-195.28
-194.43
-201.50
-216.97
-238.58
-261.22
-277.44
-280.56
-264.86
-228.31
-174.25
-111.34
-51.45
-5.98
17.76
28.88
36.36
49.34
72.38
103.94
138.78
171.35
197.79
216.24
226.94
229.56
224.79
213.83
198.36
180.48
162.31
145.74
131.46
120.66
112.40
105.14
96.97
86.47
73.75
60.52
49.55
42.87
41.98
46.12
53.25
60.22
63.75
61.49
52.57
39.95
25.91
13.49
5.13
2.00
3.10
5.86
7.49
6.32
2.60
-3.60
-10.64
-16.44
-19.84
-21.72
-24.41
-30.24
-40.33
-53.89
-71.12
-91.09
-112.07
-132.27
-150.43
-165.73
-178.07
-189.04
-190.01
-180.88
-168.14
-157.38
-146.52
-127.98
-95.70
-50.52
-0.27
44.61
74.13
84.93
80.83
70.03
58.56
49.34
43.07
39.47
38.29
37.80
37.16
36.81
37.66
39.89
42.84
45.48
45.97
43.99
39.56
34.08
29.86
28.91
31.74
37.33
43.80
49.30
52.90
54.28
54.14
53.88
54.73
56.90
59.53
60.87
58.96
52.45
40.89
25.20
7.43
-10.03
-25.21
-37.06
-45.51
-51.17
-54.86
-57.22
-58.59
-58.88
-57.72
-54.58
-49.04
-40.99
-30.84
-19.50
-8.14
2.19
11.03
18.59
25.53
32.44
39.32
45.58
50.18
52.30
51.78
49.34
46.23
43.70
42.40
42.17
42.28
41.80
40.13
37.19
33.31
28.98
24.55
20.11
15.54
10.69
5.47
-0.06
-5.77
-11.55
-17.33
-23.09
-28.72
-33.92
-38.15
-40.75
-41.10
-38.87
-34.12
-27.27
-18.90
-9.56
0.40
10.79
21.38
31.75
41.24
48.96
53.90
55.10
51.72
43.08
28.62
7.96
-18.99
-51.79
-89.13
-128.55
-166.49
-198.62
-220.50
-228.33
-219.84
-195.05
-156.58
-109.40
-59.84
-14.10
23.20
49.81
65.88
73.10
73.61
69.16
60.97
50.08
37.73
25.45
14.63
6.03
-0.46
-5.61
-10.15
-14.22
-17.13
-17.55
-14.01
-5.63
7.52
24.29
42.64
60.23
74.97
85.51
91.42
93.13
91.55
87.69
82.35
76.04
69.06
61.65
54.14
46.94
40.45
34.91
30.25
26.14
22.06
17.43
11.83
5.02
-2.98
-11.90
-21.22
-30.19
-37.82
-43.05
-44.94
-42.98
-37.34
-28.89
-19.01
-9.13
-0.34
6.98
13.09
18.63
24.24
30.14
35.94
40.81
43.82
44.29
42.14
37.85
32.31
26.43
20.87
15.95
11.68
7.96
4.67
1.78
-0.71
-2.87
-4.79
-6.62
-8.48
-10.46
-12.66
-15.17
-18.20
-21.93
-26.57
-32.18
-38.53
-45.02
-50.69
-54.35
-54.93
-51.76
-44.82
-34.75
-22.60
-9.57
3.43
15.81
27.35
37.97
47.55
55.86
62.55
67.32
70.03
70.79
69.92
67.89
65.15
62.08
58.88
55.60
52.14
48.34
43.98
38.85
32.80
25.80
17.90
9.25
-0.00
-9.71
-19.85
-30.41
-41.35
-52.41
-62.97
-71.98
-78.06
-79.88
-76.51
-67.84
-54.69
-38.66
-21.79
-6.05
7.10
16.96
23.72
28.36
32.27
36.84
42.89
50.37
58.38
65.69
71.28
74.81
76.68
77.58
77.84
77.08
74.12
67.58
56.43
40.54
20.83
-1.07
-23.33
-44.41
-63.31
-79.59
-93.19
-104.24
-112.90
-119.32
-123.62
-125.81
-125.74
-122.98
-116.90
-106.87
-92.62
-74.43
-53.36
-31.05
-9.36
10.07
26.34
39.40
50.05
59.43
68.49
77.44
85.61
91.73
94.54
93.37
88.48
80.85
71.72
62.02
52.13
42.00
31.41
20.29
8.86
-2.56
-13.65
-24.16
-33.81
-42.20
-48.81
-53.12
-54.88
-54.22
-51.68
-47.95
-43.61
-38.89
-33.59
-27.20
-19.08
-8.72
4.07
18.98
35.20
51.50
66.46
78.93
88.31
94.78
99.08
102.22
104.94
107.39
109.10
109.16
106.65
100.97
91.92
79.57
64.12
45.79
24.96
2.43
-20.44
-41.80
-59.71
-72.66
-80.06
-82.40
-80.94
-77.11
-71.79
-64.82
-54.85
-39.85
-17.98
11.39
47.01
85.83
123.77
156.73
181.46
195.78
198.37
188.67
167.05
135.32
97.03
57.05
20.29
-9.80
-32.29
-48.61
-61.35
-72.85
-84.10
-94.66
-103.10
-107.65
-106.61
-98.56
-82.69
-59.04
-28.94
5.01
39.25
69.89
93.14
105.71
105.19
90.52
62.76
25.32
-16.55
-57.11
-92.02
-119.61
-140.88
-158.34
-174.08
-188.56
-200.36
-207.12
-206.77
-198.56
-183.07
-161.69
-135.92
-106.98
-75.88
-43.69
-11.89
17.82
43.75
64.69
80.24
90.71
96.92
99.68
99.50
96.47
90.31
80.72
67.63
51.47
33.15
13.92
-5.04
-22.86
-39.18
-54.00
-67.40
-79.18
-88.83
-95.59
-98.80
-98.08
-93.33
-84.62
-71.94
-55.23
-34.55
-10.31
16.58
44.58
71.59
94.87
111.36
118.22
113.81
98.56
75.19
47.96
21.18
-2.37
-22.15
-39.37
-55.63
-71.53
-86.08
-97.21
-103.11
-103.23
-98.64
-91.33
-83.21
-75.19
-66.96
-57.56
-46.12
-32.58
-17.97
-4.00
7.52
15.45
19.65
20.87
20.30
18.97
17.32
15.19
12.22
8.35
4.09
0.42
-1.67
-1.73
-0.27
1.52
2.23
0.98
-2.17
-6.25
-9.75
-11.28
-9.98
-5.60
1.65
11.52
23.97
39.14
57.10
77.49
99.20
120.38
138.55
150.98
155.15
149.15
132.33
105.50
71.02
32.32
-6.87
-43.35
-75.08
-101.24
-121.95
-137.67
-148.91
-156.04
-159.48
-159.65
-157.03
-151.83
-144.03
-133.41
-119.92
-103.99
-86.57
-68.96
-52.40
-37.75
-25.28
-14.74
-5.59
2.77
10.82
18.78
26.61
34.01
40.50
45.56
48.83
50.23
50.05
48.80
47.10
45.43
44.06
42.97
41.98
40.81
39.18
36.90
33.87
30.06
25.54
20.40
14.77
8.80
2.66
-3.42
-9.12
-14.05
-17.75
-19.75
-19.76
-17.73
-13.93
-8.92
-3.41
1.92
6.62
10.56
13.99
17.37
21.20
25.85
31.31
37.26
43.10
48.07
51.56
53.18
52.89
51.03
48.11
44.72
41.35
38.26
35.48
32.86
30.18
27.27
24.06
20.63
17.11
13.61
10.20
6.86
3.55
0.27
-3.01
-6.29
-9.55
-12.75
-15.65
-17.78
-18.52
-17.23
-13.61
-7.81
-0.46
7.59
15.59
23.14
30.21
37.00
43.71
50.35
56.80
62.89
68.58
74.05
79.59
85.44
91.53
97.34
102.07
104.95
105.67
104.52
102.36
100.04
98.02
96.00
93.06
88.05
79.97
68.20
52.48
32.76
9.17
-17.83
-47.31
-77.80
-107.64
-135.17
-159.08
-178.24
-191.57
-197.96
-196.50
-186.97
-170.21
-148.13
-123.13
-97.36
-72.03
-47.27
-22.58
2.54
27.98
52.89
75.88
95.45
110.32
119.50
122.35
118.54
108.19
92.07
71.65
48.97
26.26
5.44
-12.19
-26.08
-36.21
-42.87
-46.36
-46.98
-44.99
-40.67
-34.31
-26.18
-16.44
-5.18
7.48
21.23
35.46
49.22
61.24
69.99
73.92
71.68
62.52
46.69
25.64
1.97
-21.16
-40.86
-55.37
-64.42
-69.06
-70.92
-71.34
-70.87
-69.21
-65.73
-60.00
-52.09
-42.45
-31.47
-19.16
-5.12
11.25
30.20
51.27
73.18
93.94
111.24
122.94
127.47
124.06
112.78
94.31
69.74
40.48
8.19
-25.20
-57.60
-87.14
-112.51
-133.18
-149.28
-161.24
-169.27
-173.18
-172.60
-167.36
-157.91
-145.28
-130.78
-115.47
-99.79
-83.54
-66.25
-47.65
-28.03
-8.29
10.24
26.23
38.67
47.15
51.82
53.19
51.97
48.86
44.50
39.57
34.90
31.45
30.10
31.37
35.09
40.39
46.01
50.83
54.46
57.47
61.09
66.58
74.41
83.86
93.09
99.84
102.30
99.68
92.41
81.66
68.75
54.64
39.74
24.19
8.21
-7.66
-22.62
-35.89
-46.97
-55.74
-62.45
-67.46
-71.12
-73.63
-75.10
-75.59
-75.09
-73.48
-70.47
-65.60
-58.38
-48.49
-36.05
-21.62
-6.12
9.50
24.52
38.49
51.08
61.77
69.67
73.63
72.67
66.53
55.89
42.18
26.98
11.50
-3.79
-18.99
-34.35
-49.93
-65.43
-80.19
-93.38
-104.11
-111.45
-114.57
-113.02
-106.90
-97.05
-84.86
-71.82
-59.01
-46.87
-35.13
-23.19
-10.54
2.90
16.59
29.40
39.92
46.77
49.04
46.54
39.87
30.19
18.88
7.19
-3.94
-13.84
-21.92
-27.57
-30.18
-29.34
-25.04
-17.73
-8.31
2.15
12.62
22.18
30.19
36.21
40.09
41.91
41.96
40.67
38.37
35.21
31.11
25.82
19.21
11.43
3.03
-5.04
-11.77
-16.35
-18.41
-18.15
-16.21
-13.46
-10.76
-8.78
-7.88
-8.17
-9.50
-11.62
-14.21
-16.98
-19.74
-22.42
-25.03
-27.53
-29.84
-31.71
-32.86
-33.01
-32.00
-29.77
-26.40
-22.07
-17.12
-12.02
-7.39
-3.86
-1.94
-1.80
-3.24
-5.67
-8.36
-10.59
-11.87
-12.05
-11.30
-10.06
-8.94
-8.51
-9.25
-11.38
-14.81
-19.06
-23.34
-26.68
-28.17
-27.22
-23.80
-18.35
-11.68
-4.66
2.11
8.33
14.00
19.22
24.03
28.32
31.90
34.65
36.56
37.77
38.49
38.92
39.14
39.19
39.04
38.66
37.98
36.92
35.36
33.24
30.66
27.86
25.16
22.83
20.93
19.31
17.66
15.75
13.53
11.15
8.85
6.77
4.87
2.90
0.63
-2.13
-5.36
-8.92
-12.52
-15.76
-18.25
-19.59
-19.53
-18.03
-15.28
-11.68
-7.61
-3.30
1.25
6.21
11.78
17.95
24.49
30.92
36.71
41.39
44.69
46.57
47.16
46.72
45.50
43.73
41.57
39.12
36.50
33.86
31.42
29.43
28.07
27.35
27.09
26.98
26.54
25.26
22.62
18.31
12.25
4.85
-3.04
-10.47
-16.70
-21.71
-26.23
-31.53
-38.77
-48.46
-60.15
-72.51
-83.74
-92.20
-96.75
-97.04
-93.42
-86.74
-78.09
-68.51
-58.85
-49.66
-41.22
-33.54
-26.45
-19.65
-12.77
-5.44
2.58
11.34
20.60
29.92
38.71
46.44
52.66
57.12
59.68
60.31
58.98
55.75
50.65
43.82
35.56
26.33
16.78
7.65
-0.42
-6.94
-11.78
-15.04
-17.06
-18.18
-18.72
-18.84
-18.72
-18.57
-18.70
-19.50
-21.33
-24.35
-28.45
-33.18
-37.87
-41.70
-43.85
-43.72
-41.03
-35.85
-28.61
-19.92
-10.50
-0.96
8.23
16.71
24.19
30.46
35.38
38.86
40.97
41.85
41.77
41.06
40.05
39.05
38.29
37.90
37.88
38.09
38.33
38.33
37.88
36.85
35.27
33.24
30.91
28.38
25.73
22.99
20.12
17.16
14.14
11.14
8.20
5.37
2.64
0.02
-2.47
-4.84
-7.12
-9.44
-11.97
-14.82
-17.90
-20.88
-23.22
-24.33
-23.84
-21.70
-18.21
-13.85
-9.14
-4.42
0.15
4.57
8.88
13.09
17.13
20.87
24.16
26.85
28.85
30.13
30.78
30.97
30.97
31.00
31.22
31.65
32.14
32.49
32.56
32.26
31.70
31.09
30.68
30.67
31.16
32.13
33.47
35.02
36.56
37.87
38.78
39.18
39.08
38.60
37.89
37.01
35.82
33.97
30.99
26.63
21.06
15.09
9.90
6.76
6.34
8.48
12.06
15.46
17.13
16.15
12.44
6.57
-0.63
-8.46
-16.49
-24.45
-32.03
-38.68
-43.73
-46.69
-47.48
-46.56
-44.77
-42.97
-41.69
-40.99
-40.56
-39.96
-38.91
-37.42
-35.66
-33.87
-32.17
-30.53
-28.88
-27.27
-25.84
-24.90
-24.67
-25.18
-26.18
-27.14
-27.41
-26.45
-24.00
-20.23
-15.71
-11.23
-7.53
-5.00
-3.50
-2.48
-1.09
1.41
5.46
10.99
17.54
24.38
30.75
36.07
40.01
42.56
43.91
44.41
44.43
44.31
44.36
44.73
45.44
46.26
46.82
46.66
45.49
43.33
40.44
37.31
34.26
31.40
28.50
25.20
21.18
16.32
10.75
4.66
-1.78
-8.56
-15.76
-23.41
-31.40
-39.39
-46.85
-53.26
-58.29
-61.86
-64.18
-65.62
-66.60
-67.43
-68.28
-69.17
-69.96
-70.35
-69.90
-68.13
-64.67
-59.31
-52.14
-43.51
-33.94
-23.97
-14.10
-4.66
4.15
12.27
19.70
26.38
32.13
36.70
39.83
41.42
41.56
40.54
38.78
36.69
34.66
33.06
32.28
32.68
34.46
37.57
41.68
46.25
50.71
54.52
57.18
58.18
56.94
52.97
46.04
36.51
25.27
13.65
2.89
-6.19
-13.43
-19.23
-24.21
-28.89
-33.36
-37.30
-39.97
-40.47
-37.94
-31.79
-22.00
-9.25
5.04
18.95
30.60
38.66
42.78
43.71
43.03
42.67
44.26
48.58
55.22
62.60
68.32
69.79
64.97
52.92
34.06
10.11
-16.35
-42.39
-65.27
-82.87
-93.95
-98.33
-96.77
-90.84
-82.53
-73.78
-66.05
-60.07
-55.80
-52.64
-49.71
-46.32
-42.14
-37.37
-32.60
-28.59
-26.01
-25.23
-26.29
-28.88
-32.50
-36.53
-40.27
-42.96
-43.84
-42.27
-37.90
-30.91
-22.02
-12.37
-3.18
4.65
10.83
15.58
19.46
22.88
25.96
28.49
30.26
31.31
32.14
33.47
35.88
39.44
43.62
47.54
50.43
51.94
52.23
51.82
51.32
51.39
52.92
57.09
65.19
78.04
95.20
114.43
132.00
143.65
146.05
137.93
120.40
96.31
69.04
41.33
14.62
-10.80
-35.27
-58.98
-81.61
-102.15
-119.25
-131.62
-138.53
-139.95
-136.56
-129.41
-119.61
-108.08
-95.42
-81.98
-67.92
-53.24
-37.79
-21.29
-3.47
15.82
36.31
57.26
77.57
95.99
111.50
123.58
132.30
138.18
141.90
143.92
144.16
141.96
136.20
125.73
109.78
88.26
61.88
31.98
0.36
-31.07
-60.53
-86.73
-109.02
-127.38
-142.29
-154.36
-164.06
-171.55
-176.73
-179.34
-179.18
-176.14
-170.18
-161.27
-149.52
-135.24
-119.16
-102.35
-86.07
-71.42
-58.99
-48.76
-40.12
-32.16
-23.95
-14.81
-4.43
7.12
19.42
31.86
43.69
54.19
62.76
69.04
72.92
74.47
73.84
71.19
66.67
60.44
52.75
43.95
34.43
24.68
15.19
6.44
-1.17
-7.25
-11.46
-13.44
-12.84
-9.44
-3.32
4.90
13.99
22.27
27.91
29.43
26.01
17.66
5.16
-10.19
-26.81
-42.99
-57.17
-68.15
-75.31
-78.70
-78.97
-77.08
-73.98
-70.35
-66.45
-62.19
-57.30
-51.61
-45.11
-38.04
-30.67
-23.14
-15.21
-6.40
3.75
15.21
27.13
37.98
46.08
50.39
51.06
49.36
47.02
45.41
44.92
44.97
44.53
42.73
39.28
34.36
28.28
21.36
14.05
7.21
2.15
0.26
2.28
7.64
14.38
19.78
21.41
18.11
10.46
0.50
-8.99
-15.32
-16.52
-11.71
-1.31
13.01
28.49
41.76
49.63
49.99
42.44
28.34
10.38
-8.36
-25.28
-38.86
-48.71
-55.27
-59.37
-61.86
-63.39
-64.42
-65.19
-65.76
-65.91
-65.17
-62.86
-58.29
-51.01
-41.05
-29.09
-16.40
-4.59
4.81
10.78
13.03
12.06
8.93
4.89
1.04
-1.99
-4.10
-5.71
-7.49
-10.20
-14.35
-19.99
-26.71
-33.75
-40.32
-45.98
-50.92
-55.89
-62.01
-70.20
-80.77
-93.15
-105.95
-117.50
-126.50
-132.67
-136.83
-140.59
-145.68
-153.04
-162.56
-173.05
-182.76
-189.83
-192.67
-190.19
-182.15
-169.84
-156.35
-146.06
-142.88
-148.07
-158.50
-166.84
-163.94
-142.40
-99.86
-40.18
27.91
93.98
149.26
188.76
211.49
219.46
216.32
206.27
193.73
182.95
177.59
179.98
190.31
206.38
223.85
237.51
242.89
237.84
223.46
203.89
185.16
173.36
172.75
184.44
206.17
233.11
259.58
280.78
293.86
298.04
293.94
282.90
266.62
247.31
227.85
211.30
199.73
192.93
187.87
179.87
165.00
142.65
116.60
93.58
80.00
78.33
85.29
92.97
92.38
77.53
48.05
9.09
-31.28
-65.65
-89.95
-104.22
-111.28
-114.71
-117.06
-119.37
-121.69
-124.11
-127.27
-132.06
-138.84
-146.69
-153.43
-156.31
-153.30
-143.96
-129.73
-113.38
-97.83
-85.12
-75.72
-68.66
-62.15
-54.51
-44.95
-33.81
-22.38
-12.26
-4.75
-0.33
1.34
1.21
0.40
-0.12
0.23
1.62
3.97
6.97
10.27
13.52
16.43
18.68
19.92
19.76
17.91
14.35
9.57
4.49
0.15
-2.85
-4.85
-7.15
-11.53
-19.43
-31.25
-46.17
-62.54
-78.55
-92.86
-104.68
-113.55
-118.91
-120.02
-116.22
-107.47
-94.69
-79.68
-64.59
-51.21
-40.47
-32.38
-26.30
-21.41
-17.10
-13.11
-9.42
-6.15
-3.39
-1.13
0.72
2.32
3.85
5.45
7.19
9.01
10.71
12.05
12.82
12.89
12.25
10.99
9.29
7.31
5.20
3.06
0.92
-1.25
-3.48
-5.79
-8.12
-10.33
-12.21
-13.58
-14.27
-14.14
-13.16
-11.55
-9.94
-9.35
-11.00
-15.80
-24.01
-35.09
-47.95
-61.45
-74.69
-87.00
-97.64
-105.62
-109.73
-108.98
-103.21
-93.43
-81.61
-69.94
-60.05
-52.39
-46.51
-41.52
-36.73
-31.93
-27.33
-23.22
-19.75
-16.73
-13.55
-9.43
-3.49
5.15
16.91
31.33
46.56
59.61
67.44
68.63
64.12
57.14
51.79
50.94
54.90
61.42
67.25
70.00
69.42
66.34
61.70
56.09
50.00
44.48
41.25
42.18
48.02
57.99
68.98
77.30
81.06
81.55
82.61
88.48
101.53
120.97
143.61
163.74
175.31
174.17
159.40
133.09
99.04
61.47
19.89
-21.43
-56.39
-80.64
-93.60
-97.18
-93.99
-86.66
-77.73
-69.36
-62.21
-56.63
-52.59
-49.44
-46.18
-42.06
-37.00
-31.60
-26.66
-22.25
-18.50
-15.46
-12.90
-10.26
-7.14
-3.36
0.75
4.76
8.66
12.32
15.59
18.52
21.35
24.22
27.28
30.39
33.26
35.75
37.60
38.52
38.29
36.84
33.89
29.67
24.30
17.89
10.71
2.98
-5.04
-13.11
-20.08
-26.21
-31.30
-35.20
-37.77
-39.02
-39.06
-38.14
-36.60
-34.78
-33.10
-31.55
-30.09
-28.50
-26.63
-24.46
-22.10
-19.80
-17.87
-16.61
-15.95
-15.62
-15.16
-14.20
-12.58
-10.54
-8.63
-7.51
-7.71
-9.10
-11.34
-13.14
-13.55
-12.25
-9.85
-7.71
-7.39
-9.93
-15.10
-21.42
-26.62
-28.74
-27.10
-22.85
-18.66
-17.63
-21.78
-30.88
-42.37
-52.30
-57.31
-56.02
-49.99
-43.12
-39.77
-43.16
-53.89
-70.10
-87.95
-102.43
-108.03
-100.00
-76.12
-38.77
3.74
39.89
58.16
52.69
27.19
-5.41
-28.27
-28.13
-1.85
41.88
86.85
116.41
120.49
98.65
58.65
12.17
-29.62
-59.13
-73.49
-73.27
-61.62
-42.95
-21.73
-2.15
12.44
20.05
20.55
14.63
4.34
-7.40
-17.18
-21.86
-19.68
-10.87
2.00
15.00
24.26
27.81
25.89
20.90
16.12
14.16
16.21
21.42
27.48
31.52
31.43
26.48
17.57
6.75
-3.69
-11.64
-16.19
-17.88
-18.28
-19.24
-22.12
-27.29
-34.00
-40.83
-45.55
-46.29
-41.74
-31.49
-16.29
1.67
19.08
32.47
35.96
27.66
9.86
-11.52
-29.02
-36.62
-32.24
-18.15
0.63
19.11
35.50
51.58
71.82
101.16
142.47
194.76
252.64
307.19
347.92
365.78
355.05
314.85
249.72
169.06
85.43
12.10
-39.84
-64.35
-61.77
-39.24
-8.52
17.67
29.71
23.97
3.28
-25.01
-52.44
-72.56
-82.94
-85.15
-83.21
-81.42
-82.68
-87.74
-95.52
-104.07
-111.45
-116.46
-118.76
-118.70
-116.97
-114.35
-111.65
-109.50
-108.35
-108.23
-108.72
-108.88
-107.41
-102.92
-94.21
-80.59
-61.97
-38.82
-12.06
17.21
47.72
77.94
105.98
129.40
145.50
151.93
147.49
132.85
110.70
85.23
61.04
41.80
29.35
23.47
22.31
23.47
24.92
25.64
25.59
25.41
25.88
27.76
31.75
38.52
48.56
61.65
76.27
89.34
96.71
94.44
80.39
55.43
23.56
-9.19
-36.64
-54.45
-61.22
-58.50
-49.83
-39.22
-29.88
-23.42
-19.80
-17.78
-15.48
-11.14
-3.53
7.57
21.24
35.47
47.61
55.05
56.04
50.15
38.46
23.12
6.67
-8.73
-21.85
-32.55
-41.66
-50.45
-60.16
-71.45
-84.12
-97.08
-108.82
-117.88
-123.49
-125.80
-125.84
-124.99
-124.61
-125.62
-128.43
-132.94
-138.74
-145.08
-151.03
-155.55
-157.82
-157.39
-154.30
-148.94
-141.74
-132.85
-122.13
-109.31
-94.36
-77.72
-60.32
-43.26
-27.49
-13.47
-1.14
9.89
20.08
29.74
38.89
47.30
54.65
60.69
65.35
68.82
71.47
73.62
75.35
76.40
76.21
74.32
70.56
65.27
59.20
53.24
48.04
43.80
40.32
37.20
34.00
30.41
26.21
21.16
15.11
7.99
-0.05
-8.66
-17.37
-25.80
-33.77
-41.24
-48.21
-54.52
-59.77
-63.47
-65.20
-64.84
-62.69
-59.31
-55.37
-51.31
-47.18
-42.57
-36.73
-28.91
-18.73
-6.49
6.79
19.61
30.52
38.64
43.88
46.88
48.61
49.88
51.07
52.12
52.79
52.93
52.53
51.65
50.27
48.13
44.87
40.27
34.44
27.96
21.70
16.52
12.90
10.77
9.52
8.23
6.05
2.47
-2.60
-8.92
-16.10
-23.64
-30.95
-37.30
-41.93
-44.23
-44.16
-42.37
-40.04
-38.31
-37.55
-37.00
-34.93
-29.50
-19.65
-5.80
10.32
26.43
40.66
52.24
61.49
69.28
76.38
83.03
89.06
94.38
99.25
104.18
109.42
114.40
117.78
118.15
115.02
109.38
103.36
98.95
96.56
94.28
88.46
75.48
53.77
24.85
-7.00
-36.35
-58.49
-70.79
-72.91
-66.34
-53.66
-37.95
-22.40
-9.77
-1.82
1.26
0.90
-0.42
-0.29
2.58
7.81
13.89
19.20
23.11
26.28
30.23
36.29
44.79
54.76
64.33
71.50
74.93
74.15
69.48
61.60
51.18
38.80
25.06
10.85
-2.54
-13.53
-20.65
-22.99
-20.56
-14.40
-6.26
1.83
8.16
11.64
11.89
9.09
3.83
-3.09
-10.82
-18.64
-26.19
-33.50
-40.96
-49.00
-57.72
-66.64
-74.77
-80.90
-84.04
-83.67
-79.79
-72.81
-63.41
-52.54
-41.36
-31.17
-23.02
-17.35
-13.64
-10.61
-6.71
-0.88
6.90
15.64
23.72
29.63
32.45
31.98
28.51
22.80
16.08
10.38
8.49
13.37
26.93
48.87
76.33
104.62
128.82
145.49
153.34
152.92
145.44
131.84
112.56
88.15
60.07
30.88
3.53
-19.76
-38.48
-53.85
-68.11
-83.20
-99.84
-117.15
-133.14
-145.48
-152.40
-153.23
-148.47
-139.45
-127.72
-114.47
-100.26
-85.14
-69.11
-52.64
-36.81
-22.95
-11.97
-3.70
3.16
10.59
20.34
33.23
48.84
65.75
81.99
95.49
104.41
107.42
103.88
94.07
79.10
60.43
39.31
16.37
-8.32
-34.55
-61.38
-86.80
-108.15
-123.11
-130.55
-130.88
-125.66
-116.78
-105.91
-94.21
-82.50
-71.49
-61.81
-53.76
-47.11
-41.09
-34.71
-27.20
-18.38
-8.66
1.18
10.44
18.82
26.59
34.40
43.07
53.21
64.89
77.69
90.88
103.85
116.28
128.21
139.65
150.25
159.11
164.83
165.96
161.46
150.97
134.81
113.62
88.03
58.58
25.86
-8.91
-43.67
-75.60
-101.78
-120.11
-130.03
-132.65
-130.33
-125.73
-120.98
-117.13
-114.24
-111.70
-108.62
-104.04
-96.99
-86.42
-71.39
-51.28
-26.12
3.13
34.67
66.29
96.12
123.20
147.63
169.81
189.29
204.05
210.85
206.71
190.85
165.63
136.01
107.46
83.57
64.63
48.17
30.72
10.12
-13.41
-37.64
-59.84
-78.22
-92.56
-103.70
-112.49
-118.84
-121.59
-119.16
-110.67
-96.65
-79.18
-61.10
-44.74
-30.99
-19.08
-7.30
5.84
20.68
36.07
50.15
61.29
68.98
74.00
77.65
80.78
83.07
83.08
78.91
69.12
53.21
31.54
5.14
-24.58
-55.74
-85.87
-112.05
-131.49
-142.42
-144.65
-139.70
-130.12
-118.61
-107.16
-96.70
-87.04
-77.22
-65.81
-51.43
-33.18
-11.08
13.70
39.29
63.68
85.48
104.18
120.03
133.50
144.83
154.15
161.81
168.84
177.04
188.30
203.50
221.35
238.11
248.35
246.72
229.84
197.45
152.13
98.08
39.60
-19.80
-77.16
-129.37
-172.72
-203.42
-218.88
-219.07
-206.97
-187.70
-166.62
-147.50
-131.52
-117.56
-103.42
-87.30
-68.69
-48.57
-28.87
-11.62
1.75
10.82
16.04
18.36
18.74
17.83
15.88
12.99
9.36
5.40
1.70
-1.28
-3.46
-5.21
-7.22
-10.19
-14.53
-20.17
-26.70
-33.55
-40.29
-46.76
-53.01
-59.20
-65.41
-71.55
-77.42
-82.78
-87.50
-91.48
-94.61
-96.57
-96.79
-94.45
-88.82
-79.52
-66.86
-51.77
-35.55
-19.42
-4.14
10.09
23.51
36.34
48.57
59.78
69.41
77.06
82.83
87.35
91.49
95.95
100.79
105.37
108.56
109.34
107.28
102.73
96.57
89.67
82.47
74.92
66.77
58.00
49.00
40.31
32.05
23.52
13.36
0.17
-16.61
-36.15
-56.36
-74.64
-88.96
-98.62
-104.52
-108.60
-113.01
-119.07
-126.69
-134.21
-138.85
-137.69
-128.65
-111.34
-87.42
-60.35
-34.67
-14.83
-4.07
-3.52
-11.74
-25.08
-38.81
-48.87
-53.49
-53.87
-53.71
-57.29
-67.38
-83.74
-103.16
-120.99
-133.17
-137.73
-135.11
-127.42
-117.17
-106.32
-95.71
-84.84
-71.94
-54.11
-28.09
8.51
55.88
111.30
169.74
225.41
273.77
312.60
341.94
362.68
375.11
378.15
369.84
348.55
314.13
268.18
213.62
153.74
91.76
30.83
-25.61
-73.64
-109.28
-129.40
-132.80
-120.90
-97.59
-68.45
-39.40
-15.37
0.73
8.34
9.10
6.05
2.46
0.75
1.84
5.26
9.90
14.84
19.97
25.86
33.12
41.72
50.64
58.15
62.65
63.30
60.35
54.77
47.62
39.23
28.88
14.99
-4.24
-29.96
-61.92
-98.20
-135.54
-170.14
-198.71
-219.11
-230.47
-232.63
-225.61
-209.37
-184.24
-151.61
-114.35
-76.43
-41.77
-12.90
9.69
27.38
42.28
56.05
69.25
81.30
91.10
97.49
99.55
96.59
88.16
74.21
55.38
33.27
10.39
-10.38
-26.57
-36.93
-41.68
-42.38
-41.13
-39.83
-39.64
-40.86
-43.05
-45.25
-46.07
-43.82
-36.89
-24.35
-6.65
14.10
34.44
50.70
60.22
62.29
58.20
50.63
42.58
36.43
33.29
32.93
34.14
35.29
34.94
32.19
26.72
18.55
7.81
-5.27
-20.01
-35.05
-48.33
-57.68
-61.74
-60.53
-55.59
-49.15
-43.03
-37.71
-32.23
-24.87
-14.24
-0.27
15.68
31.43
45.12
56.18
65.39
74.32
84.01
94.08
102.38
105.78
101.48
88.28
67.14
40.75
12.56
-14.30
-37.76
-56.87
-71.60
-82.32
-89.61
-94.15
-96.80
-98.52
-100.16
-102.04
-103.72
-103.97
-101.29
-94.40
-82.73
-66.52
-46.39
-23.04
2.96
30.99
59.89
87.72
111.95
130.23
141.16
144.86
142.75
136.86
128.95
119.99
110.15
99.13
86.49
71.92
55.30
36.58
15.92
-6.09
-28.35
-49.23
-66.99
-80.30
-88.72
-92.77
-93.65
-92.73
-90.99
-88.83
-86.08
-82.29
-77.06
-70.24
-62.09
-53.16
-44.21
-35.83
-28.50
-22.37
-17.35
-13.05
-8.91
-4.25
1.46
8.31
15.70
22.42
26.90
27.89
24.90
18.38
9.56
-0.15
-9.66
-18.43
-26.34
-33.28
-38.83
-42.20
-42.50
-39.16
-32.33
-23.04
-12.97
-3.99
2.42
5.63
5.98
4.64
3.08
2.60
4.01
7.38
12.12
17.15
21.26
23.52
23.68
22.23
20.24
18.85
18.75
19.89
21.59
22.92
23.09
21.73
18.88
14.97
10.66
6.69
3.65
1.65
0.10
-2.24
-6.88
-14.94
-26.60
-40.90
-55.93
-69.46
-79.43
-84.45
-83.82
-77.44
-65.72
-49.44
-29.64
-7.66
14.98
36.58
55.37
69.70
78.29
80.48
76.45
67.23
54.52
40.43
27.06
16.29
9.44
7.19
9.45
15.48
24.00
33.48
42.46
49.81
54.91
57.69
58.60
58.39
57.87
57.65
57.95
58.65
59.47
60.28
61.23
62.71
65.18
68.74
73.04
77.34
80.76
82.53
82.03
78.64
71.66
60.43
44.61
24.63
1.87
-21.62
-43.70
-62.85
-78.54
-91.07
-100.93
-108.18
-111.99
-110.98
-103.85
-90.28
-71.32
-49.37
-27.41
-8.10
6.97
17.56
24.42
28.67
31.21
32.54
32.87
32.52
31.99
31.68
31.40
30.11
26.09
17.65
3.87
-14.84
-36.96
-60.47
-83.47
-104.52
-122.42
-135.94
-143.82
-145.11
-139.77
-128.95
-114.71
-99.17
-83.67
-68.34
-52.24
-34.19
-13.43
9.88
34.95
60.82
86.79
112.45
137.25
159.98
178.62
190.84
195.05
191.45
182.29
171.34
162.27
157.24
156.17
157.20
157.96
156.78
153.00
146.40
136.34
121.30
99.35
69.20
31.12
-12.87
-59.66
-106.01
-149.30
-187.55
-219.20
-242.89
-257.72
-263.77
-262.52
-256.59
-248.79
-241.00
-233.38
-224.52
-212.37
-195.31
-173.24
-147.53
-120.68
-95.33
-73.53
-56.18
-43.05
-33.05
-24.70
-16.65
-8.09
1.03
9.99
17.53
22.39
23.66
21.20
15.63
8.08
-0.10
-7.67
-13.63
-17.33
-18.44
-16.91
-12.94
-6.89
0.88
10.12
20.79
32.94
46.67
61.94
78.55
96.14
114.19
132.07
148.89
163.54
174.84
181.73
183.57
180.18
171.78
158.77
141.51
120.33
95.66
68.34
39.76
11.69
-14.03
-35.97
-53.44
-66.48
-75.70
-81.86
-85.57
-87.07
-86.40
-83.51
-78.64
-72.25
-64.91
-56.99
-48.30
-38.28
-26.31
-12.26
3.15
18.38
31.55
41.19
46.81
48.98
48.79
47.18
44.30
39.60
32.19
21.58
8.00
-7.59
-23.93
-39.85
-54.62
-67.83
-79.27
-88.72
-95.98
-100.96
-103.76
-104.46
-102.90
-98.46
-90.20
-77.35
-59.83
-38.55
-15.27
7.83
28.93
46.97
61.81
73.92
83.93
92.34
99.31
104.77
108.41
109.78
108.33
103.53
95.09
83.14
68.29
51.60
34.40
18.08
3.90
-7.13
-14.41
-17.84
-17.76
-14.85
-9.86
-3.38
4.23
12.75
21.89
31.21
40.04
47.71
53.73
57.88
60.15
60.60
59.27
56.02
50.68
43.07
33.03
20.45
5.26
-12.47
-32.49
-54.22
-76.67
-98.46
-118.00
-133.77
-144.67
-150.25
-150.75
-146.94
-139.81
-130.33
-119.21
-106.90
-93.73
-80.13
-66.69
-54.20
-43.36
-34.57
-27.83
-22.73
-18.71
-15.33
-12.42
-10.05
-8.44
-7.65
-7.57
-7.84
-8.02
-7.77
-6.92
-5.56
-3.87
-2.13
-0.57
0.60
1.25
1.36
0.94
0.08
-1.14
-2.63
-4.38
-6.39
-8.72
-11.48
-14.75
-18.60
-22.86
-27.08
-30.45
-32.00
-30.85
-26.56
-19.37
-10.13
-0.07
9.72
18.53
26.21
32.96
39.06
44.63
49.53
53.50
56.32
57.99
58.67
58.64
58.10
57.14
55.77
53.94
51.70
49.15
46.44
43.70
40.97
38.23
35.36
32.24
28.79
25.01
21.00
16.88
12.75
8.66
4.57
0.43
-3.74
-7.86
-11.74
-15.26
-18.42
-21.43
-24.64
-28.45
-33.04
-38.23
-43.41
-47.57
-49.61
-48.67
-44.48
-37.43
-28.46
-18.69
-9.10
-0.26
7.69
14.89
21.56
27.79
33.55
38.72
43.15
46.72
49.34
50.92
51.43
50.92
49.54
47.55
45.19
42.66
40.06
37.39
34.62
31.73
28.73
25.67
22.57
19.42
16.17
12.76
9.15
5.34
1.37
-2.69
-6.72
-10.64
-14.39
-17.97
-21.48
-25.11
-29.10
-33.62
-38.71
-44.08
-49.06
-52.72
-54.09
-52.49
-47.78
-40.44
-31.41
-21.78
-12.39
-3.70
4.22
11.50
18.27
24.55
30.22
35.18
39.34
42.67
45.17
46.76
47.36
46.91
45.48
43.27
40.59
37.70
34.82
32.01
29.28
26.57
23.84
21.01
17.99
14.65
10.90
6.80
2.70
-0.85
-3.19
-3.86
-2.78
-0.26
3.02
6.31
8.89
10.19
9.79
7.45
3.11
-2.89
-9.80
-16.45
-21.59
-24.23
-24.00
-21.28
-17.03
-12.42
-8.43
-5.57
-3.84
-2.82
-1.88
-0.50
1.63
4.42
7.50
10.34
12.48
13.71
14.12
14.02
13.74
13.42
13.02
12.38
11.43
10.33
9.37
8.89
8.99
9.56
10.34
11.19
12.20
13.63
15.69
18.23
20.74
22.45
22.74
21.47
19.07
16.31
13.88
12.05
10.54
8.81
6.52
3.82
1.57
0.94
2.99
8.19
16.21
26.09
36.73
47.31
57.52
67.49
77.38
87.02
95.79
102.78
107.12
108.08
105.15
97.89
85.89
69.03
47.91
24.00
-0.45
-23.10
-42.36
-57.82
-70.18
-80.65
-90.15
-98.94
-106.67
-112.85
-117.32
-120.36
-122.44
-123.81
-124.27
-123.27
-120.25
-115.04
-108.12
-100.51
-93.41
-87.85
-84.41
-83.12
-83.56
-85.07
-86.93
-88.40
-88.81
-87.50
-83.99
-78.01
-69.67
-59.50
-48.29
-36.90
-26.05
-16.09
-7.08
1.10
8.59
15.48
21.74
27.27
31.93
35.57
38.16
39.82
40.85
41.67
42.70
44.18
46.18
48.56
51.14
53.76
56.31
58.61
60.38
61.29
61.09
59.76
57.57
54.95
52.28
49.75
47.27
44.64
41.69
38.41
34.93
31.34
27.49
23.04
17.48
10.44
1.96
-7.30
-16.03
-22.55
-25.28
-23.23
-16.41
-5.89
6.56
19.06
30.20
39.31
46.51
52.39
57.58
62.43
66.85
70.34
72.23
72.18
70.50
68.44
67.83
70.32
76.52
85.37
94.45
100.92
102.88
100.25
94.72
88.76
84.29
81.69
79.59
75.48
66.70
51.37
28.93
0.32
-32.16
-65.38
-96.00
-121.29
-139.72
-151.24
-156.98
-158.62
-157.76
-155.45
-152.15
-147.85
-142.21
-134.65
-124.38
-110.66
-93.20
-72.56
-50.19
-28.14
-8.36
7.95
20.58
30.10
37.34
42.90
46.83
48.69
47.86
43.84
36.46
26.06
13.56
0.43
-11.47
-20.28
-24.69
-24.41
-20.34
-14.20
-7.82
-2.44
1.80
5.76
10.83
18.18
28.35
40.91
54.71
68.15
79.55
87.50
91.09
90.09
85.09
77.41
68.69
60.36
52.94
45.63
36.34
22.48
2.05
-25.16
-57.15
-90.17
-119.97
-143.33
-158.90
-167.29
-170.21
-169.34
-165.66
-159.38
-150.47
-139.27
-126.76
-114.28
-102.97
-93.24
-84.66
-76.25
-66.91
-55.95
-43.33
-29.62
-15.77
-2.80
8.56
17.90
25.10
30.16
33.00
33.50
31.61
27.56
21.97
15.78
10.02
5.48
2.48
0.82
-0.08
-0.88
-2.11
-4.02
-6.59
-9.63
-12.96
-16.52
-20.34
-24.54
-29.24
-34.38
-39.64
-44.43
-47.88
-49.09
-47.37
-42.52
-34.96
-25.63
-15.73
-6.32
2.02
9.21
15.64
21.82
28.16
34.78
41.51
47.90
53.47
57.80
60.66
62.07
62.32
61.76
60.78
59.64
58.43
57.11
55.60
53.76
51.50
48.83
45.88
43.00
40.74
39.77
40.56
43.22
47.31
51.93
55.95
58.36
58.57
56.48
52.44
46.93
40.33
32.80
24.30
14.85
4.77
-5.13
-13.62
-19.35
-21.30
-19.12
-13.30
-4.92
4.74
14.68
24.48
34.16
43.93
53.79
63.32
71.85
78.73
83.67
86.76
88.34
88.62
87.45
84.33
78.72
70.43
59.88
48.04
36.12
25.03
15.15
6.24
-2.27
-10.96
-20.13
-29.76
-39.63
-49.54
-59.38
-69.14
-78.66
-87.59
-95.27
-100.96
-104.09
-104.51
-102.61
-99.22
-95.36
-91.98
-89.72
-88.81
-89.11
-90.18
-91.39
-91.95
-91.08
-88.11
-82.64
-74.70
-64.78
-53.69
-42.33
-31.37
-21.12
-11.55
-2.42
6.50
15.26
23.69
31.47
38.20
43.59
47.47
49.86
50.97
51.05
50.37
49.13
47.42
45.37
43.10
40.78
38.56
36.43
34.21
31.65
28.55
24.94
21.01
17.09
13.41
10.03
6.80
3.47
-0.15
-4.12
-8.32
-12.56
-16.66
-20.51
-24.12
-27.58
-31.05
-34.72
-38.63
-42.68
-46.49
-49.43
-50.69
-49.50
-45.41
-38.52
-29.50
-19.46
-9.69
-1.24
5.27
9.79
12.68
14.52
15.89
17.22
18.75
20.58
22.73
25.17
27.84
30.62
33.39
36.00
38.25
39.97
40.92
40.92
39.79
37.46
33.92
29.29
23.77
17.64
11.30
5.22
-0.15
-4.44
-7.46
-9.25
-10.03
-10.12
-9.80
-9.28
-8.72
-8.30
-8.34
-9.33
-11.80
-16.19
-22.56
-30.40
-38.57
-45.46
-49.37
-49.02
-44.00
-34.93
-23.28
-10.88
0.79
11.11
20.57
30.62
43.05
59.29
79.65
102.99
126.74
147.50
161.96
167.84
164.52
153.17
136.34
117.21
98.83
83.46
72.27
65.29
61.53
59.35
56.97
52.99
46.82
38.87
30.30
22.46
16.38
12.25
9.48
6.90
3.36
-1.95
-9.22
-18.09
-27.85
-37.84
-47.65
-57.28
-67.21
-78.18
-90.89
-105.59
-121.62
-137.31
-150.09
-157.20
-156.54
-147.49
-131.27
-110.55
-88.61
-68.24
-50.88
-36.29
-22.88
-8.50
8.61
28.96
51.46
73.65
92.41
104.90
109.37
105.44
94.07
77.02
56.42
34.38
12.82
-6.63
-22.87
-35.54
-45.15
-52.87
-59.99
-67.37
-75.00
-82.16
-87.75
-90.90
-91.30
-89.29
-85.65
-81.31
-77.06
-73.47
-70.86
-69.36
-68.91
-69.34
-70.31
-71.38
-72.03
-71.67
-69.72
-65.68
-59.25
-50.46
-39.73
-27.79
-15.51
-3.64
7.35
17.33
26.47
34.99
43.02
50.47
57.06
62.45
66.41
68.85
69.91
69.80
68.81
67.16
65.05
62.66
60.16
57.64
55.12
52.50
49.61
46.31
42.55
38.39
33.92
29.23
24.33
19.17
13.71
8.01
2.26
-3.28
-8.41
-13.01
-17.18
-21.12
-25.11
-29.40
-34.15
-39.37
-44.88
-50.26
-54.84
-57.76
-58.14
-55.34
-49.22
-40.25
-29.45
-18.07
-7.30
2.09
9.83
16.04
21.03
25.05
28.20
30.40
31.54
31.53
30.41
28.42
25.91
23.33
21.12
19.60
18.90
18.91
19.34
19.79
19.89
19.37
18.08
15.99
13.14
9.65
5.71
1.54
-2.57
-6.40
-9.76
-12.59
-14.93
-16.91
-18.71
-20.50
-22.47
-24.76
-27.42
-30.43
-33.61
-36.57
-38.73
-39.45
-38.18
-34.71
-29.24
-22.42
-15.10
-8.05
-1.69
3.97
9.22
14.37
19.51
24.47
28.86
32.34
34.76
36.22
37.00
37.37
37.46
37.26
36.65
35.55
33.97
32.03
29.94
27.92
26.12
24.64
23.47
22.55
21.74
20.84
19.74
18.35
16.73
14.93
12.98
10.82
8.26
5.13
1.32
-3.19
-8.29
-13.83
-19.61
-25.33
-30.51
-34.51
-36.65
-36.39
-33.54
-28.31
-21.32
-13.33
-5.11
2.83
10.19
16.92
23.08
28.72
33.83
38.31
42.01
44.74
46.39
46.91
46.34
44.81
42.49
39.60
36.36
32.97
29.57
26.23
23.00
19.85
16.72
13.53
10.16
6.47
2.39
-2.06
-6.78
-11.54
-16.12
-20.36
-24.22
-27.78
-31.22
-34.67
-38.24
-41.88
-45.47
-48.74
-51.23
-52.23
-50.84
-46.27
-38.13
-26.80
-13.44
0.31
12.89
23.25
31.12
36.83
40.98
44.10
46.47
48.16
49.18
49.55
49.31
48.47
47.01
44.98
42.51
39.90
37.46
35.41
33.79
32.44
31.06
29.34
27.01
23.88
19.96
15.50
11.04
7.24
4.62
3.26
2.59
1.56
-0.96
-5.77
-13.08
-22.51
-33.50
-45.53
-58.31
-71.64
-85.09
-97.88
-108.86
-116.83
-120.87
-120.67
-116.55
-109.38
-100.23
-89.97
-79.13
-67.77
-55.78
-43.08
-29.90
-16.77
-4.43
6.46
15.42
22.23
26.84
29.22
29.45
27.76
24.69
21.00
17.55
14.99
13.58
13.17
13.30
13.48
13.35
12.77
11.78
10.46
8.89
7.09
5.07
2.92
0.78
-1.18
-2.86
-4.25
-5.48
-6.80
-8.47
-10.74
-13.81
-17.75
-22.46
-27.64
-32.69
-36.83
-39.21
-39.10
-36.20
-30.69
-23.25
-14.82
-6.28
1.77
9.14
15.92
22.33
28.47
34.29
39.61
44.23
47.99
50.79
52.57
53.32
53.07
51.97
50.26
48.25
46.23
44.38
42.74
41.26
39.88
38.47
36.85
34.82
32.15
28.67
24.37
19.37
13.93
8.38
2.98
-2.04
-6.54
-10.51
-14.01
-17.23
-20.41
-23.83
-27.77
-32.39
-37.65
-43.28
-48.75
-53.32
-56.18
-56.73
-54.70
-50.31
-44.16
-37.03
-29.65
-22.51
-15.85
-9.68
-4.02
1.08
5.48
9.09
11.96
14.37
16.75
19.59
23.21
27.60
32.36
36.76
40.01
41.48
40.94
38.66
35.28
31.54
28.01
24.95
22.23
19.61
16.92
14.18
11.61
9.45
7.78
6.48
5.21
3.63
1.47
-1.40
-5.05
-9.50
-14.72
-20.54
-26.51
-31.92
-35.74
-36.95
-34.70
-28.68
-19.22
-7.34
5.45
17.47
27.30
34.09
37.76
38.97
38.82
38.53
38.99
40.54
42.94
45.49
47.31
47.68
46.25
43.06
38.48
33.05
27.19
21.18
15.13
9.09
3.12
-2.61
-7.93
-12.69
-16.89
-20.61
-24.03
-27.26
-30.25
-32.87
-34.85
-35.96
-36.02
-34.93
-32.72
-29.56
-25.79
-21.93
-18.66
-16.65
-16.37
-17.92
-20.97
-24.86
-28.88
-32.54
-35.68
-38.38
-40.62
-42.14
-42.39
-40.72
-36.83
-30.93
-23.68
-15.81
-7.78
0.51
9.54
19.77
31.21
43.10
53.99
62.12
65.88
64.28
57.20
45.49
30.71
14.82
-0.26
-13.01
-22.46
-28.29
-30.70
-30.28
-27.87
-24.50
-21.23
-18.98
-18.38
-19.65
-22.63
-26.81
-31.46
-35.84
-39.33
-41.53
-42.40
-42.27
-41.72
-41.41
-41.81
-42.93
-44.29
-45.03
-44.28
-41.49
-36.67
-30.34
-23.31
-16.30
-9.71
-3.52
2.50
8.62
14.91
21.23
27.32
32.91
37.83
41.96
45.21
47.48
48.62
48.58
47.42
45.40
42.88
40.30
37.99
36.10
34.55
33.08
31.32
29.03
26.15
22.88
19.59
16.64
14.22
12.22
10.30
8.08
5.26
1.87
-1.80
-5.28
-8.08
-9.96
-11.02
-11.82
-13.17
-15.88
-20.44
-26.68
-33.74
-40.30
-44.98
-46.89
-45.90
-42.68
-38.22
-33.33
-28.18
-22.21
-14.54
-4.62
7.16
19.28
29.51
35.83
37.36
34.92
30.80
27.79
27.95
31.65
37.39
42.39
43.90
40.32
32.01
21.16
11.48
7.13
11.53
25.88
48.02
71.88
88.54
88.85
67.18
24.68
-29.90
-82.43
-118.28
-127.55
-108.36
-66.77
-13.84
38.77
82.17
111.88
127.39
130.75
125.19
114.44
102.44
93.18
90.20
95.71
109.89
130.70
154.38
176.23
191.91
198.34
194.36
180.76
159.73
133.95
105.47
74.72
40.06
-1.62
-53.19
-114.84
-182.10
-245.72
-293.79
-315.45
-304.49
-261.42
-193.25
-111.36
-28.47
44.08
98.23
130.19
140.42
132.84
113.30
87.67
60.39
33.77
8.48
-15.35
-37.17
-56.02
-71.02
-82.02
-89.71
-95.01
-98.31
-99.24
-97.03
-91.23
-82.53
-72.83
-64.69
-60.31
-60.57
-64.71
-70.55
-75.35
-76.81
-73.84
-66.79
-57.12
-46.77
-37.40
-29.98
-24.64
-20.82
-17.73
-14.63
-11.05
-6.77
-1.80
3.77
9.74
15.75
21.28
25.65
28.15
28.22
25.57
20.29
12.79
3.66
-6.49
-17.10
-27.68
-37.78
-46.86
-54.31
-59.48
-61.79
-60.80
-56.38
-48.68
-38.20
-25.83
-12.87
-1.00
7.93
12.21
10.79
3.62
-8.21
-22.65
-37.17
-49.24
-56.92
-59.19
-56.09
-48.55
-38.15
-26.60
-15.32
-5.14
3.76
11.67
19.00
25.99
32.57
38.42
43.12
46.32
47.89
47.93
46.69
44.59
42.02
39.39
36.97
34.89
33.09
31.31
29.11
26.00
21.57
15.62
8.30
0.19
-7.87
-14.87
-20.04
-22.98
-23.87
-23.34
-22.30
-21.63
-22.03
-23.85
-27.10
-31.59
-37.02
-43.05
-49.34
-55.52
-61.20
-65.88
-69.01
-70.04
-68.50
-64.20
-57.32
-48.48
-38.57
-28.51
-19.06
-10.66
-3.46
2.50
7.19
10.51
12.41
12.96
12.54
11.68
10.95
10.76
11.26
12.35
13.78
15.28
16.62
17.65
18.34
18.72
18.89
19.00
19.12
19.22
19.10
18.52
17.23
15.16
12.42
9.34
6.30
3.69
1.82
0.84
0.69
1.10
1.54
1.37
-0.02
-2.94
-7.21
-12.13
-16.68
-19.82
-20.85
-19.62
-16.50
-12.22
-7.47
-2.80
1.52
5.40
8.86
11.89
14.48
16.62
18.33
19.65
20.62
21.24
21.47
21.25
20.58
19.49
18.04
16.28
14.27
12.04
9.71
7.51
5.67
4.36
3.59
3.10
2.49
1.37
-0.44
-2.88
-5.58
-8.13
-10.28
-12.09
-13.92
-16.29
-19.68
-24.32
-30.06
-36.42
-42.63
-47.79
-51.01
-51.60
-49.23
-44.03
-36.61
-27.83
-18.49
-8.96
0.92
11.72
23.99
37.80
52.53
66.91
79.51
89.16
95.35
98.28
98.64
97.37
95.36
93.37
91.97
91.51
92.08
93.42
94.93
95.73
94.95
92.02
86.96
80.44
73.64
67.75
63.58
61.22
60.07
59.11
57.23
53.43
46.95
37.13
23.43
5.59
-16.10
-40.59
-66.08
-90.32
-111.10
-126.60
-135.64
-137.61
-132.49
-120.84
-103.90
-83.60
-62.30
-42.34
-25.48
-12.43
-2.86
4.31
10.37
16.12
21.59
26.10
28.49
27.72
23.28
15.50
5.47
-5.33
-15.58
-24.47
-31.92
-38.36
-44.40
-50.38
-56.24
-61.54
-65.70
-68.16
-68.61
-66.95
-63.25
-57.74
-50.72
-42.68
-34.23
-25.98
-18.41
-11.60
-5.35
0.73
6.81
12.66
17.73
21.52
24.06
26.11
28.88
33.44
40.01
47.68
54.79
59.67
61.40
60.16
56.91
52.77
48.44
44.01
39.11
33.39
26.75
19.48
11.99
4.66
-2.30
-8.81
-14.80
-20.09
-24.38
-27.34
-28.73
-28.50
-26.84
-24.16
-21.03
-17.94
-15.24
-13.15
-11.77
-11.28
-12.02
-14.36
-18.56
-24.58
-31.99
-40.14
-48.32
-56.00
-62.90
-68.93
-74.07
-78.35
-81.78
-84.43
-86.37
-87.60
-88.00
-87.26
-84.97
-80.90
-75.04
-67.72
-59.43
-50.58
-41.27
-31.22
-19.92
-6.98
7.60
23.26
38.99
53.64
66.29
76.51
84.43
90.55
95.49
99.70
103.32
106.13
107.74
107.79
106.13
102.94
98.68
93.97
89.41
85.40
82.08
79.28
76.68
73.89
70.56
66.50
61.69
56.17
49.93
42.78
34.21
23.54
10.15
-6.15
-24.84
-44.54
-63.25
-78.69
-88.86
-92.45
-89.18
-79.78
-65.89
-49.65
-33.31
-18.87
-7.90
-1.36
0.31
-2.70
-9.63
-19.16
-29.61
-39.32
-47.00
-52.09
-54.76
-55.69
-55.63
-55.03
-53.90
-51.90
-48.68
-44.12
-38.55
-32.71
-27.53
-23.91
-22.43
-23.24
-26.00
-30.00
-34.37
-38.34
-41.43
-43.51
-44.85
-45.90
-47.15
-48.91
-51.20
-53.68
-55.78
-56.78
-56.03
-53.10
-47.85
-40.48
-31.48
-21.46
-11.07
-0.83
8.97
18.25
27.05
35.46
43.42
50.69
56.95
61.89
65.38
67.54
68.71
69.30
69.64
69.80
69.66
68.97
67.60
65.65
63.41
61.27
59.43
57.79
55.98
53.47
49.89
45.18
39.65
33.82
28.22
23.09
18.26
13.09
6.71
-1.59
-11.94
-23.71
-35.71
-46.75
-56.27
-64.65
-72.84
-81.56
-90.58
-98.52
-103.41
-103.45
-97.57
-85.25
-66.42
-41.62
-12.92
15.26
36.31
43.36
32.27
4.22
-33.86
-71.48
-98.56
-109.06
-102.50
-82.82
-55.78
-26.28
2.72
30.01
55.33
78.88
101.39
124.15
148.60
175.36
203.42
229.95
251.23
263.95
266.31
258.18
240.60
215.13
183.46
147.67
110.57
75.49
45.52
22.41
5.95
-5.65
-14.61
-22.31
-28.79
-33.23
-35.06
-34.83
-34.26
-35.27
-38.81
-44.10
-49.03
-51.37
-50.29
-46.92
-43.85
-43.57
-46.99
-52.90
-58.72
-62.01
-61.92
-59.68
-57.81
-58.74
-63.60
-71.74
-81.29
-89.97
-95.95
-97.99
-95.54
-88.86
-79.39
-69.81
-63.35
-62.11
-65.27
-68.32
-64.29
-46.69
-12.94
33.70
84.92
130.57
162.75
178.60
180.51
173.83
163.81
153.33
142.61
130.58
116.73
102.13
89.08
79.71
74.66
72.54
70.73
66.97
60.58
52.87
46.26
42.91
43.44
46.56
49.76
50.48
47.30
40.53
31.98
24.16
19.19
18.02
20.03
23.43
25.92
25.69
22.07
15.76
8.45
2.14
-1.71
-2.65
-1.25
1.20
3.23
3.66
1.73
-2.79
-9.59
-17.73
-25.58
-30.99
-31.89
-27.10
-17.22
-5.03
5.15
8.78
2.73
-13.76
-39.06
-70.09
-103.59
-136.67
-166.73
-190.70
-204.49
-203.19
-182.35
-140.05
-78.94
-7.05
63.43
119.06
148.98
148.06
118.05
66.29
2.74
-63.23
-124.66
-177.06
-217.35
-242.78
-251.02
-241.14
-214.84
-176.82
-133.93
-93.47
-61.52
-41.92
-35.86
-41.94
-56.49
-73.98
-87.73
-90.98
-78.30
-46.95
2.24
64.74
133.15
198.70
253.39
291.86
312.63
318.08
313.21
303.71
293.92
285.79
278.85
271.15
260.41
244.98
224.02
197.31
164.79
126.21
81.06
28.90
-29.95
-93.64
-158.33
-218.35
-266.96
-297.67
-305.66
-289.09
-249.82
-193.37
-128.05
-63.40
-8.16
31.45
52.79
56.71
46.43
26.07
-0.61
-30.71
-61.85
-91.62
-117.35
-136.63
-148.12
-152.08
-150.29
-145.22
-138.87
-132.04
-124.21
-114.17
-100.96
-84.57
-66.19
-47.86
-31.77
-19.66
-12.36
-9.78
-11.09
-15.18
-20.95
-27.46
-34.00
-39.91
-44.46
-46.87
-46.49
-43.00
-36.73
-28.65
-20.16
-12.71
-7.31
-4.32
-3.41
-3.86
-4.92
-6.18
-7.74
-10.07
-13.79
-19.29
-26.62
-35.28
-44.43
-52.86
-59.28
-62.47
-61.52
-56.07
-46.51
-33.95
-20.00
-6.34
5.67
15.39
22.90
28.79
33.87
38.80
43.91
49.20
54.44
59.28
63.46
66.76
69.09
70.44
70.88
70.53
69.56
68.15
66.48
64.67
62.80
60.88
58.81
56.39
53.40
49.64
45.08
39.84
34.19
28.44
22.81
17.36
11.99
6.50
0.64
-5.80
-12.97
-20.87
-29.31
-37.72
-45.24
-50.78
-53.36
-52.45
-48.17
-41.30
-33.00
-24.40
-16.31
-9.04
-2.53
3.43
9.00
14.10
18.55
22.07
24.51
25.82
26.17
25.82
25.03
23.96
22.64
20.99
18.92
16.44
13.74
11.17
9.03
7.44
6.23
4.97
3.21
0.67
-2.58
-6.13
-9.46
-12.19
-14.26
-15.93
-17.63
-19.74
-22.50
-25.92
-29.95
-34.43
-39.10
-43.49
-46.86
-48.32
-47.09
-42.88
-36.06
-27.54
-18.45
-9.72
-1.77
5.47
12.26
18.83
25.10
30.68
35.15
38.20
39.85
40.38
40.22
39.64
38.79
37.62
36.01
33.91
31.39
28.64
25.84
23.14
20.51
17.84
14.92
11.58
7.73
3.42
-1.20
-5.89
-10.41
-14.59
-18.34
-21.71
-24.86
-28.08
-31.70
-36.02
-41.15
-46.85
-52.40
-56.76
-58.80
-57.67
-53.17
-45.86
-36.86
-27.52
-18.90
-11.50
-5.25
0.34
5.82
11.51
17.35
23.03
28.09
32.13
34.90
36.32
36.50
35.64
34.07
32.20
30.40
28.92
27.75
26.61
24.99
22.38
18.42
13.09
6.75
0.13
-5.78
-10.05
-12.00
-11.54
-9.11
-5.66
-2.28
0.05
0.77
-0.30
-3.03
-7.11
-12.22
-17.97
-23.81
-29.03
-32.82
-34.48
-33.68
-30.52
-25.52
-19.35
-12.63
-5.74
1.24
8.37
15.68
23.02
30.03
36.13
40.75
43.47
44.17
43.05
40.65
37.64
34.65
32.12
30.17
28.62
27.13
25.38
23.23
20.79
18.39
16.41
15.07
14.34
13.86
13.18
11.93
10.01
7.62
5.14
3.08
1.99
2.53
5.25
10.29
17.03
23.90
28.81
29.86
26.33
19.07
10.30
2.70
-1.58
-1.72
1.66
6.92
12.06
15.34
15.71
13.02
8.03
2.08
-3.28
-6.83
-7.97
-6.76
-3.64
0.93
6.64
13.27
20.53
27.95
34.98
41.14
46.27
50.40
53.69
56.14
57.52
57.47
55.71
52.27
47.55
42.18
36.85
32.00
27.68
23.50
18.77
12.84
5.38
-3.38
-12.69
-21.62
-29.44
-36.00
-41.80
-47.66
-54.29
-61.93
-70.21
-78.40
-85.81
-92.16
-97.74
-103.33
-109.84
-118.00
-128.01
-139.31
-150.66
-160.18
-165.76
-165.39
-157.61
-141.93
-119.02
-90.76
-59.98
-29.94
-3.62
16.88
30.72
38.35
41.11
40.75
38.96
37.16
36.34
37.09
39.54
43.31
47.66
51.65
54.49
55.80
55.70
54.70
53.42
52.35
51.64
51.17
50.61
49.63
48.13
46.38
45.00
44.75
46.18
49.27
53.34
57.24
59.85
60.52
59.32
56.77
53.39
49.30
44.12
37.40
29.23
20.46
12.67
7.42
5.57
6.87
10.14
13.80
16.54
17.55
16.49
13.20
7.64
-0.06
-9.33
-19.19
-28.37
-35.73
-40.54
-42.64
-42.30
-39.98
-36.17
-31.27
-25.64
-19.48
-12.86
-5.64
2.40
11.44
21.47
32.29
43.53
54.71
65.27
74.37
80.96
83.94
82.54
76.69
67.01
54.45
39.74
23.05
4.11
-17.34
-41.13
-66.44
-92.10
-116.92
-139.78
-159.48
-174.43
-182.77
-182.93
-174.50
-158.77
-138.58
-117.37
-97.97
-81.67
-68.17
-56.11
-44.09
-31.27
-17.76
-4.39
7.70
17.59
25.07
30.86
36.67
44.65
56.59
72.95
92.31
111.60
127.10
135.85
136.80
131.21
122.06
112.91
106.65
104.73
106.99
111.96
117.40
120.93
120.48
114.81
103.80
88.62
71.39
54.68
40.67
30.50
23.96
19.60
15.25
8.80
-1.01
-14.09
-28.90
-42.98
-53.70
-59.36
-59.83
-56.64
-52.46
-50.07
-51.44
-56.99
-65.59
-74.99
-82.57
-86.08
-84.17
-76.61
-64.24
-48.66
-31.79
-15.37
-0.64
11.81
22.01
30.35
37.21
42.75
46.71
48.57
47.72
43.81
37.00
27.97
17.77
7.50
-1.96
-10.17
-17.16
-23.38
-29.57
-36.59
-45.13
-55.40
-66.92
-78.47
-88.38
-95.16
-98.03
-97.27
-93.97
-89.41
-84.28
-78.28
-70.26
-58.92
-43.66
-25.20
-5.56
12.48
26.27
34.16
35.88
32.42
25.48
16.84
7.91
-0.38
-7.44
-12.80
-16.05
-17.01
-15.92
-13.55
-11.12
-9.82
-10.37
-12.75
-16.17
-19.35
-21.05
-20.34
-16.96
-11.29
-4.21
3.21
10.16
16.35
22.12
28.20
35.17
42.90
50.36
55.79
57.32
53.68
44.58
30.72
13.42
-5.78
-25.39
-44.12
-60.78
-74.40
-84.15
-89.50
-90.16
-86.14
-77.82
-65.92
-51.62
-36.39
-21.78
-8.99
1.32
9.15
14.93
19.22
22.47
24.91
26.60
27.62
28.09
28.30
28.59
29.20
30.08
30.83
30.76
29.10
25.38
19.67
12.73
5.81
0.34
-2.47
-1.89
2.19
9.31
18.54
28.59
37.91
44.89
48.18
47.03
41.45
32.29
20.97
9.16
-1.57
-9.98
-15.21
-16.86
-14.95
-9.97
-2.83
5.15
12.52
18.05
21.08
21.66
20.48
18.55
16.70
15.34
14.46
13.87
13.61
14.12
16.20
20.55
27.39
36.29
46.38
56.95
67.86
79.69
93.40
109.71
128.61
149.21
169.90
188.71
203.60
212.61
214.11
207.19
192.15
170.83
146.47
122.91
103.38
89.49
80.71
74.71
68.17
57.92
41.74
18.74
-10.63
-44.93
-82.14
-120.17
-157.11
-191.27
-221.12
-245.10
-261.64
-269.51
-268.24
-258.47
-241.91
-220.80
-197.24
-172.57
-147.24
-121.17
-94.40
-67.54
-41.89
-18.99
0.01
14.84
26.42
36.53
47.22
60.11
75.74
93.26
110.69
125.51
135.65
140.17
139.58
135.45
129.55
122.98
115.76
107.08
95.88
81.46
63.68
42.59
18.10
-10.17
-42.49
-78.36
-115.99
-152.38
-184.11
-208.25
-223.27
-229.13
-226.94
-218.25
-204.43
-186.29
-164.09
-137.81
-107.57
-74.01
-38.50
-3.00
30.26
59.26
82.40
98.69
107.55
108.74
102.43
89.36
71.11
49.99
28.59
9.14
-7.00
-19.52
-28.84
-35.66
-40.53
-43.81
-45.74
-46.62
-46.87
-46.90
-46.98
-47.18
-47.45
-47.70
-47.83
-47.80
-47.58
-47.15
-46.54
-45.85
-45.23
-44.88
-45.00
-45.77
-47.38
-49.88
-53.17
-56.75
-59.82
-61.31
-60.30
-56.29
-49.46
-40.60
-30.90
-21.46
-13.03
-5.83
0.41
6.11
11.67
17.23
22.67
27.70
32.00
35.33
37.60
38.90
39.44
39.49
39.25
38.81
38.12
36.99
35.25
32.87
29.97
26.86
23.85
21.19
18.92
16.88
14.76
12.20
8.95
4.97
0.53
-3.74
-7.01
-8.37
-7.12
-3.05
3.39
11.06
18.43
23.93
26.48
25.87
22.83
18.87
15.74
14.86
16.93
21.76
28.52
36.13
43.66
50.67
57.20
63.66
70.43
77.63
84.89
91.42
96.20
98.25
96.80
91.41
82.02
68.99
53.13
35.68
18.19
2.29
-10.73
-20.12
-25.81
-28.27
-28.15
-25.99
-22.12
-16.67
-9.87
-2.26
5.25
11.57
15.79
17.61
17.45
16.32
15.32
15.05
15.22
14.74
12.19
6.53
-2.32
-13.27
-24.37
-33.45
-38.85
-39.87
-36.79
-30.48
-21.91
-11.76
-0.35
12.18
25.60
39.44
53.12
66.19
78.60
90.73
103.20
116.51
130.76
145.49
159.72
172.04
180.79
184.33
181.35
171.44
155.35
135.06
113.34
92.92
75.65
62.02
51.03
40.67
28.47
12.22
-9.49
-36.90
-68.98
-103.57
-137.94
-169.41
-196.06
-216.99
-232.23
-242.30
-247.71
-248.69
-245.29
-237.70
-226.44
-212.43
-196.73
-180.29
-163.68
-147.10
-130.52
-113.92
-97.43
-81.36
-66.11
-51.99
-39.18
-27.71
-17.47
-8.39
-0.36
6.68
12.79
18.04
22.54
26.35
29.58
32.31
34.59
36.43
37.78
38.49
38.39
37.40
35.56
33.13
30.51
28.13
26.29
25.07
24.25
23.49
22.52
21.32
20.21
19.75
20.59
23.19
27.72
34.05
41.78
50.33
59.07
67.29
74.29
79.46
82.48
83.41
82.74
81.26
79.91
79.53
80.74
83.89
89.02
95.95
104.25
113.29
122.20
129.88
135.24
137.29
135.47
129.75
120.63
108.94
95.50
80.84
65.03
47.76
28.64
7.55
-15.06
-38.11
-60.07
-79.42
-95.14
-107.04
-115.70
-122.11
-127.17
-131.27
-134.32
-136.08
-136.58
-136.35
-136.35
-137.48
-140.13
-143.79
-147.15
-148.44
-145.82
-137.89
-123.81
-103.39
-77.10
-46.01
-11.79
23.46
57.44
87.90
112.96
131.34
142.40
146.00
142.28
131.59
114.51
92.13
66.16
38.90
12.75
-10.32
-29.32
-44.26
-55.90
-65.21
-72.81
-78.86
-83.17
-85.58
-86.25
-85.68
-84.49
-83.18
-81.84
-80.21
-77.83
-74.25
-69.26
-63.01
-55.96
-48.75
-42.01
-36.18
-31.44
-27.70
-24.70
-22.18
-19.89
-17.65
-15.27
-12.54
-9.25
-5.32
-0.96
3.32
6.79
8.81
9.14
8.06
6.29
4.72
4.08
4.67
6.37
8.78
11.40
13.82
15.80
17.28
18.32
19.01
19.46
19.72
19.86
19.89
19.87
19.84
19.85
19.89
19.89
19.66
18.98
17.61
15.41
12.43
8.88
5.07
1.31
-2.12
-5.12
-7.68
-9.88
-11.90
-13.93
-16.17
-18.81
-21.84
-25.01
-27.81
-29.48
-29.28
-26.75
-21.93
-15.42
-8.17
-1.15
4.96
9.99
14.25
18.26
22.54
27.37
32.73
38.37
43.92
49.05
53.48
57.00
59.42
60.62
60.56
59.37
57.28
54.63
51.71
48.73
45.73
42.62
39.30
35.74
32.04
28.43
25.14
22.32
19.93
17.79
15.68
13.39
10.87
8.19
5.49
2.86
0.29
-2.37
-5.35
-8.83
-12.82
-17.00
-20.75
-23.24
-23.64
-21.36
-16.16
-8.21
1.95
13.60
25.91
38.12
49.52
59.56
67.87
74.27
78.77
81.47
82.45
81.69
79.03
74.26
67.23
57.98
46.82
34.35
21.33
8.54
-3.40
-14.08
-23.33
-31.05
-37.22
-41.82
-44.83
-46.35
-46.59
-45.91
-44.72
-43.43
-42.34
-41.67
-41.55
-42.06
-43.21
-44.96
-47.13
-49.43
-51.54
-53.16
-54.16
-54.59
-54.64
-54.45
-53.98
-52.96
-51.02
-47.88
-43.61
-38.67
-33.76
-29.46
-25.96
-22.87
-19.40
-14.67
-8.11
0.30
9.99
20.09
29.65
37.98
44.68
49.67
53.13
55.51
57.49
59.91
63.49
68.56
74.91
81.74
87.96
92.54
94.81
94.58
92.03
87.52
81.44
74.11
65.90
57.29
48.86
41.23
34.96
30.31
27.18
25.15
23.50
21.49
18.55
14.43
9.22
3.30
-2.78
-8.33
-12.65
-15.10
-15.20
-12.83
-8.35
-2.66
3.05
7.70
10.83
12.80
14.72
17.82
22.71
28.79
34.26
36.75
34.21
25.86
12.44
-4.04
-21.04
-36.27
-48.10
-55.72
-58.89
-57.79
-52.91
-45.08
-35.42
-25.15
-15.36
-6.84
-0.07
4.63
6.87
6.15
2.00
-5.81
-17.05
-30.94
-46.31
-61.87
-76.37
-88.82
-98.45
-104.83
-107.88
-107.93
-105.68
-101.92
-97.28
-91.97
-85.84
-78.56
-69.97
-60.36
-50.44
-41.16
-33.31
-27.24
-22.75
-19.22
-15.89
-12.07
-7.40
-1.90
4.13
10.18
15.74
20.42
24.03
26.58
28.20
29.09
29.40
29.29
28.87
28.22
27.39
26.40
25.26
24.00
22.70
21.53
20.64
20.11
19.84
19.60
19.09
18.08
16.50
14.44
12.08
9.64
7.28
5.12
3.22
1.65
0.44
-0.44
-1.04
-1.41
-1.54
-1.34
-0.66
0.60
2.45
4.74
7.20
9.57
11.58
13.07
13.99
14.37
14.26
13.79
13.07
12.20
11.27
10.35
9.52
8.87
8.49
8.40
8.58
8.89
9.15
9.15
8.74
7.89
6.78
5.80
5.45
6.11
7.82
10.20
12.53
13.99
14.07
12.74
10.46
7.92
5.67
3.86
2.18
0.03
-3.24
-8.07
-14.52
-22.23
-30.45
-38.13
-44.11
-47.33
-47.12
-43.36
-36.54
-27.62
-17.76
-7.95
1.17
9.42
16.90
23.78
30.17
35.99
41.01
45.01
47.95
50.07
51.89
54.02
56.90
60.47
64.01
66.23
65.75
61.51
53.32
42.00
29.24
17.09
7.35
1.03
-1.93
-2.63
-2.83
-4.34
-8.51
-15.80
-25.75
-37.17
-48.61
-58.70
-66.52
-71.62
-74.12
-74.47
-73.35
-71.40
-68.98
-66.08
-62.36
-57.29
-50.49
-41.95
-32.08
-21.71
-11.75
-3.04
3.96
9.22
13.21
16.71
20.66
25.81
32.57
40.83
50.01
59.22
67.45
73.88
77.92
79.38
78.43
75.50
71.22
66.31
61.42
57.09
53.61
51.05
49.31
48.20
47.54
47.19
47.03
46.86
46.38
45.19
42.89
39.11
33.72
26.78
18.59
9.53
0.09
-9.30
-18.13
-25.86
-31.85
-35.51
-36.46
-34.76
-30.89
-25.71
-20.13
-14.83
-10.12
-5.90
-1.93
2.06
6.17
10.39
14.61
18.66
22.29
25.16
26.88
27.19
26.05
23.72
20.65
17.31
14.01
10.89
7.95
5.23
2.85
0.93
-0.52
-1.77
-3.37
-6.01
-10.27
-16.43
-24.30
-33.23
-42.35
-50.72
-57.66
-62.90
-66.61
-69.37
-71.93
-75.02
-79.00
-83.77
-88.68
-92.69
-94.63
-93.57
-89.10
-81.44
-71.48
-60.49
-49.89
-40.88
-34.27
-30.20
-28.22
-27.41
-26.70
-25.28
-22.87
-19.69
-16.23
-12.90
-9.78
-6.72
-3.55
-0.47
1.95
2.97
2.17
-0.27
-3.50
-6.28
-7.51
-6.60
-3.57
1.08
6.66
12.52
17.96
22.15
24.07
22.64
17.13
7.56
-5.09
-19.07
-32.51
-44.06
-53.36
-61.04
-68.19
-75.57
-83.10
-89.72
-93.76
-93.66
-88.61
-78.82
-65.43
-50.10
-34.50
-19.98
-7.44
2.62
10.06
15.10
18.35
20.82
23.76
28.35
35.24
44.36
54.85
65.44
74.86
82.24
87.19
89.66
89.52
86.49
80.16
70.28
57.13
41.54
24.79
8.25
-6.88
-19.66
-29.47
-35.89
-38.84
-38.60
-35.87
-31.56
-26.58
-21.49
-16.36
-10.89
-4.61
2.92
11.99
22.75
35.08
48.48
62.00
74.34
84.30
91.26
95.54
98.29
100.91
104.21
107.77
109.79
107.64
98.99
82.82
60.06
33.29
5.81
-19.47
-40.95
-58.41
-72.64
-84.50
-94.45
-102.34
-107.85
-110.90
-111.96
-111.75
-110.92
-109.59
-107.24
-103.08
-96.45
-87.16
-75.61
-62.58
-48.94
-35.43
-22.56
-10.72
-0.24
8.60
15.55
20.45
23.26
24.00
22.76
19.66
14.96
9.21
3.20
-2.00
-5.31
-5.79
-2.87
3.58
13.25
25.49
39.47
54.41
69.61
84.57
98.81
111.77
122.69
130.71
135.06
135.31
131.55
124.47
115.14
104.85
94.86
86.16
79.17
73.49
67.79
60.12
48.42
31.36
8.98
-17.11
-44.21
-69.36
-90.25
-105.71
-115.66
-120.75
-121.71
-119.14
-113.41
-104.74
-93.35
-79.53
-63.64
-46.09
-27.40
-8.22
10.77
28.81
45.21
59.36
70.76
78.95
83.56
84.30
80.98
73.67
62.73
48.93
33.32
17.06
1.14
-13.91
-28.10
-41.71
-54.98
-67.74
-79.41
-89.22
-96.65
-101.59
-104.34
-105.17
-104.02
-100.42
-93.74
-83.63
-70.29
-54.56
-37.63
-20.84
-5.44
7.58
17.46
23.87
26.98
27.53
26.57
25.05
23.33
20.96
16.90
10.11
0.07
-12.90
-27.80
-43.47
-58.92
-73.50
-86.61
-97.45
-104.85
-107.66
-105.24
-97.97
-87.27
-75.06
-62.92
-51.36
-39.70
-26.63
-11.17
6.61
25.43
43.42
59.00
71.60
81.70
90.28
98.03
104.93
110.29
113.45
114.27
113.41
111.82
110.18
108.45
105.95
101.97
96.17
88.75
80.06
70.12
58.39
44.00
26.39
5.80
-16.55
-38.81
-59.07
-75.85
-88.33
-96.31
-100.05
-100.22
-97.72
-93.59
-88.62
-83.07
-76.42
-67.60
-55.46
-39.42
-19.84
1.82
23.50
42.99
58.65
69.78
76.61
80.12
81.72
82.82
84.51
87.23
90.61
93.32
93.32
88.46
77.19
59.27
35.92
9.47
-17.47
-42.78
-65.27
-84.55
-100.56
-113.03
-121.42
-125.14
-124.10
-119.01
-111.33
-102.81
-94.91
-88.31
-82.82
-77.59
-71.66
-64.39
-55.82
-46.74
-38.33
-31.67
-27.29
-24.91
-23.53
-21.87
-18.83
-13.85
-6.87
1.89
12.20
23.96
37.06
51.22
65.85
80.13
93.32
105.00
115.27
124.59
133.51
142.29
150.71
158.13
163.70
166.69
166.74
164.01
159.05
152.59
145.29
137.48
129.05
119.45
107.97
93.97
77.19
57.85
36.54
14.04
-9.00
-32.14
-55.11
-77.68
-99.45
-119.86
-138.17
-153.66
-165.63
-173.55
-177.05
-176.05
-170.88
-162.35
-151.69
-140.33
-129.52
-119.98
-111.73
-104.14
-96.26
-87.20
-76.41
-63.83
-49.73
-34.51
-18.50
-1.81
15.48
33.29
51.30
68.96
85.55
100.33
112.73
122.41
129.21
133.12
134.19
132.54
128.41
122.18
114.35
105.43
95.83
85.76
75.26
64.30
52.95
41.44
30.24
19.90
10.96
3.81
-1.40
-4.74
-6.52
-7.25
-7.50
-7.84
-8.70
-10.29
-12.49
-14.99
-17.33
-19.11
-20.13
-20.48
-20.47
-20.57
-21.23
-22.71
-24.94
-27.48
-29.69
-30.91
-30.74
-29.20
-26.68
-23.81
-21.19
-19.21
-17.99
-17.41
-17.26
-17.30
-17.32
-17.15
-16.62
-15.55
-13.80
-11.29
-7.98
-3.82
1.19
6.97
13.31
19.80
25.87
30.90
34.36
35.98
35.76
33.92
30.85
26.95
22.45
17.46
12.03
6.28
0.54
-4.70
-8.87
-11.57
-12.70
-12.60
-11.86
-11.22
-11.37
-12.89
-16.12
-21.31
-28.61
-38.07
-49.49
-62.43
-76.10
-89.46
-101.37
-110.94
-117.71
-121.81
-123.81
-124.35
-123.77
-121.98
-118.58
-113.28
-106.20
-98.03
-89.87
-82.64
-76.73
-71.72
-66.47
-59.46
-49.40
-35.59
-18.21
1.70
22.47
42.14
58.84
71.23
78.62
81.10
79.32
74.23
66.78
57.62
47.11
35.35
22.35
8.20
-6.79
-22.04
-36.70
-49.84
-60.64
-68.61
-73.79
-76.81
-78.63
-80.18
-81.74
-82.56
-80.98
-74.93
-62.84
-44.49
-21.17
4.58
29.95
52.80
72.13
87.99
100.99
111.59
119.89
125.67
128.71
128.95
126.54
121.55
113.83
102.98
88.55
70.42
49.07
25.64
1.88
-20.29
-39.08
-53.32
-62.64
-67.53
-69.09
-68.55
-66.95
-64.91
-62.59
-60.05
-57.38
-54.87
-52.89
-51.70
-51.30
-51.41
-51.63
-51.64
-51.41
-51.23
-51.54
-52.78
-55.08
-58.24
-61.59
-64.17
-64.97
-63.22
-58.59
-51.37
-42.27
-32.27
-22.25
-12.73
-3.83
4.62
12.94
21.31
29.67
37.73
45.03
51.09
55.60
58.44
59.78
59.92
59.25
58.11
56.75
55.33
53.95
52.65
51.40
50.11
48.60
46.69
44.25
41.24
37.76
33.99
30.11
26.23
22.43
18.68
14.93
11.16
7.35
3.56
-0.14
-3.68
-7.06
-10.43
-14.02
-18.13
-22.85
-27.99
-32.91
-36.69
-38.33
-37.14
-32.97
-26.27
-17.93
-8.88
0.16
8.97
17.70
26.79
36.63
47.42
59.08
71.24
83.36
94.83
105.03
113.52
120.01
124.53
127.30
128.69
129.09
128.78
127.90
126.47
124.43
121.69
118.13
113.65
108.17
101.66
94.17
85.80
76.70
66.99
56.85
46.53
36.34
26.58
17.43
8.79
0.33
-8.49
-18.21
-29.20
-41.49
-54.73
-68.26
-81.20
-92.63
-101.72
-107.84
-110.78
-110.76
-108.44
-104.75
-100.59
-96.57
-92.80
-88.94
-84.39
-78.65
-71.49
-63.11
-54.01
-44.78
-35.91
-27.63
-19.94
-12.67
-5.63
1.25
7.86
13.90
18.94
22.61
24.71
25.35
24.85
23.65
22.07
20.23
18.00
15.17
11.51
6.94
1.53
-4.56
-11.11
-17.96
-24.93
-31.87
-38.62
-45.08
-51.20
-57.05
-62.74
-68.33
-73.66
-78.25
-81.29
-81.88
-79.26
-73.15
-63.91
-52.53
-40.26
-28.26
-17.18
-7.02
2.75
12.74
23.28
34.10
44.38
53.01
59.01
61.83
61.45
58.30
53.10
46.62
39.63
32.87
26.97
22.43
19.47
17.97
17.47
17.36
17.01
16.01
14.28
11.98
9.43
6.92
4.58
2.35
0.06
-2.49
-5.37
-8.52
-11.74
-14.79
-17.46
-19.70
-21.62
-23.56
-25.96
-29.26
-33.66
-38.94
-44.32
-48.64
-50.62
-49.32
-44.45
-36.50
-26.55
-15.92
-5.76
3.23
10.91
17.50
23.44
29.13
34.79
40.38
45.67
50.29
53.84
56.06
56.90
56.51
55.20
53.31
51.15
48.90
46.70
44.60
42.62
40.68
38.68
36.44
33.84
30.84
27.48
23.86
20.07
16.16
12.15
8.07
3.97
-0.04
-3.89
-7.56
-11.13
-14.73
-18.56
-22.75
-27.36
-32.25
-37.08
-41.29
-44.13
-44.87
-43.00
-38.38
-31.40
-22.80
-13.52
-4.34
4.26
12.28
20.05
28.11
36.86
46.33
56.08
65.33
73.23
79.19
83.11
85.34
86.35
86.41
85.41
82.90
78.45
71.90
63.60
54.17
44.28
34.39
24.69
15.32
6.52
-1.23
-7.38
-11.50
-13.50
-13.59
-12.16
-9.58
-6.17
-2.30
1.43
4.12
4.59
1.72
-5.15
-15.91
-29.50
-44.06
-57.31
-67.15
-72.19
-72.18
-68.03
-61.48
-54.46
-48.45
-44.13
-41.32
-39.26
-37.07
-34.10
-30.05
-25.01
-19.21
-13.00
-6.68
-0.49
5.43
11.04
16.37
21.35
25.77
29.22
31.19
31.26
29.34
25.77
21.27
16.72
12.87
10.06
8.17
6.74
5.09
2.64
-1.09
-6.38
-13.33
-21.87
-31.71
-42.34
-53.12
-63.37
-72.51
-80.14
-85.94
-89.60
-90.77
-89.16
-84.73
-77.83
-69.14
-59.51
-49.67
-40.00
-30.60
-21.38
-12.35
-3.63
4.46
11.62
17.66
22.56
26.43
29.42
31.66
33.23
34.22
34.76
34.97
34.95
34.74
34.29
33.55
32.48
31.10
29.49
27.68
25.62
23.22
20.38
17.13
13.63
10.11
6.78
3.68
0.72
-2.29
-5.54
-9.13
-13.11
-17.46
-22.09
-26.78
-31.09
-34.40
-36.03
-35.46
-32.57
-27.69
-21.50
-14.79
-8.17
-1.98
3.77
9.23
14.59
19.98
25.39
30.66
35.55
39.69
42.75
44.47
44.80
43.96
42.35
40.50
38.89
37.85
37.55
37.95
38.93
40.27
41.67
42.75
43.08
42.32
40.26
36.92
32.56
27.55
22.25
16.89
11.51
6.05
0.41
-5.46
-11.55
-17.87
-24.39
-31.09
-37.77
-43.99
-49.05
-52.15
-52.61
-50.13
-44.93
-37.74
-29.55
-21.30
-13.62
-6.61
0.03
6.83
14.29
22.50
31.17
39.68
47.32
53.54
58.13
61.26
63.31
64.82
66.29
68.12
70.54
73.54
76.87
79.99
82.31
83.34
82.98
81.54
79.62
77.71
75.88
73.59
69.77
63.26
53.14
39.09
21.39
0.87
-21.38
-44.08
-65.96
-85.88
-102.80
-115.97
-124.84
-129.17
-128.93
-124.37
-116.05
-104.86
-91.90
-78.29
-64.91
-52.25
-40.44
-29.42
-19.21
-10.06
-2.34
3.62
7.74
10.29
11.76
12.59
12.95
12.71
11.57
9.31
6.05
2.30
-1.24
-4.00
-5.76
-6.81
-7.72
-9.18
-11.67
-15.46
-20.58
-27.03
-34.66
-43.20
-52.02
-60.20
-66.83
-71.34
-74.02
-75.92
-78.46
-82.68
-88.63
-95.24
-100.81
-103.79
-103.49
-100.11
-94.40
-86.97
-77.91
-66.97
-53.94
-39.12
-23.27
-7.17
8.91
25.39
43.06
62.37
82.87
103.14
121.29
135.62
145.25
150.26
151.47
150.07
147.21
143.80
140.34
136.87
132.97
128.09
121.86
114.36
106.13
97.75
89.40
80.56
70.43
58.80
47.02
38.32
37.07
46.97
68.97
100.05
133.43
160.44
173.16
166.79
140.83
98.75
46.59
-8.89
-61.59
-106.90
-141.89
-165.23
-177.01
-178.57
-172.18
-160.61
-146.47
-131.78
-117.59
-104.15
-91.17
-78.31
-65.44
-52.81
-40.94
-30.35
-21.34
-13.94
-7.99
-3.34
0.01
1.92
2.30
1.31
-0.43
-1.94
-2.28
-0.85
2.19
5.99
9.24
10.70
9.69
6.40
2.03
-1.40
-1.45
3.86
14.96
29.92
44.22
51.53
45.45
21.72
-19.69
-73.87
-131.89
-183.31
-219.44
-235.70
-232.37
-213.43
-184.35
-150.05
-114.07
-78.79
-46.14
-17.89
4.95
22.98
38.87
56.44
78.94
107.20
138.99
170.00
195.72
213.14
221.60
222.22
216.79
206.72
192.74
175.31
155.13
133.37
111.27
89.53
67.91
45.50
21.50
-4.28
-30.93
-56.52
-78.36
-93.13
-96.93
-85.59
-55.78
-6.94
56.77
125.96
187.58
228.58
240.06
219.76
172.08
105.54
29.63
-47.60
-120.06
-183.05
-232.63
-265.67
-280.68
-278.62
-262.79
-237.57
-206.85
-172.88
-136.31
-96.97
-54.69
-10.13
35.09
78.73
118.35
151.78
177.43
194.43
202.39
201.05
190.09
169.14
138.31
98.86
53.67
6.90
-36.85
-73.79
-101.83
-120.74
-131.62
-135.93
-134.95
-129.44
-120.02
-107.64
-93.85
-80.71
-70.16
-63.39
-60.44
-60.34
-61.68
-63.30
-64.70
-66.01
-67.64
-69.79
-72.19
-73.97
-73.83
-70.17
-61.24
-45.39
-21.35
11.25
51.41
96.48
142.38
184.13
216.89
236.88
242.16
232.76
210.41
177.92
138.46
95.06
50.45
6.97
-33.32
-68.74
-98.06
-120.67
-136.44
-145.55
-148.30
-144.96
-135.94
-122.00
-104.43
-85.07
-66.07
-49.48
-37.03
-29.78
-28.04
-31.32
-38.36
-47.38
-56.47
-64.00
-68.95
-71.08
-70.61
-67.89
-63.10
-56.15
-46.84
-35.24
-21.85
-7.66
6.08
18.17
27.81
34.63
38.70
40.41
40.29
38.87
36.64
33.96
31.11
28.28
25.63
23.27
21.24
19.51
17.91
16.22
14.19
11.67
8.67
5.37
2.12
-0.72
-2.87
-4.23
-5.01
-5.67
-6.78
-8.90
-12.41
-17.44
-23.81
-31.02
-38.28
-44.58
-48.88
-50.36
-48.71
-44.22
-37.78
-30.53
-23.58
-17.61
-12.85
-9.08
-5.90
-2.94
0.04
3.13
6.33
9.61
12.94
16.25
19.47
22.46
25.08
27.22
28.80
29.82
30.31
30.28
29.69
28.45
26.38
23.38
19.51
14.97
10.18
5.59
1.60
-1.58
-3.93
-5.61
-6.91
-8.22
-9.98
-12.57
-16.29
-21.21
-27.09
-33.36
-39.25
-43.90
-46.61
-46.94
-44.83
-40.56
-34.69
-27.86
-20.65
-13.46
-6.47
0.30
6.84
13.05
18.66
23.28
26.57
28.32
28.57
27.56
25.67
23.24
20.58
17.95
15.64
13.92
13.03
13.04
13.77
14.80
15.61
15.76
15.05
13.51
11.37
8.90
6.32
3.73
1.12
-1.63
-4.71
-8.33
-12.60
-17.39
-22.23
-26.39
-29.08
-29.81
-28.62
-26.17
-23.49
-21.54
-20.79
-20.98
-21.23
-20.45
-17.70
-12.56
-5.20
3.79
13.59
23.27
31.95
38.78
43.12
44.57
43.14
39.28
33.74
27.42
21.14
15.47
10.75
7.14
4.69
3.36
2.98
3.21
3.57
3.62
3.05
1.86
0.27
-1.44
-3.16
-5.02
-7.42
-10.78
-15.36
-21.08
-27.58
-34.32
-40.72
-46.20
-50.17
-52.05
-51.37
-47.98
-42.17
-34.71
-26.67
-19.04
-12.49
-7.18
-2.84
0.92
4.47
7.90
11.12
13.95
16.27
18.05
19.38
20.40
21.23
21.94
22.51
22.81
22.72
22.13
21.06
19.73
18.46
17.68
17.69
18.56
20.08
21.84
23.29
23.99
23.66
22.26
19.96
17.05
13.84
10.62
7.57
4.80
2.48
0.94
0.78
2.84
7.93
16.64
29.11
44.96
63.37
83.06
102.30
118.92
130.55
135.13
131.57
120.20
102.85
82.27
61.40
42.66
27.75
17.72
13.07
13.87
19.34
27.77
36.54
42.76
44.01
39.04
27.92
11.78
-7.68
-28.61
-49.28
-68.14
-83.94
-95.85
-103.66
-107.82
-109.19
-108.82
-107.53
-105.75
-103.66
-101.33
-98.87
-96.44
-93.96
-90.84
-86.06
-78.49
-67.44
-53.21
-37.19
-21.47
-8.21
1.03
5.65
5.94
2.93
-1.94
-6.96
-10.44
-11.00
-8.02
-1.81
6.40
14.90
22.19
27.38
30.41
31.85
32.57
33.44
35.16
38.08
42.03
46.18
49.05
48.94
44.48
35.33
22.43
7.80
-6.13
-17.38
-24.93
-28.95
-30.39
-30.52
-30.44
-30.81
-31.90
-33.65
-35.89
-38.33
-40.59
-42.19
-42.61
-41.48
-38.68
-34.49
-29.47
-24.32
-19.63
-15.64
-12.27
-9.21
-6.14
-2.94
0.17
2.80
4.50
5.01
4.36
2.91
1.14
-0.49
-1.71
-2.52
-3.08
-3.57
-4.09
-4.59
-4.91
-4.91
-4.54
-3.83
-2.91
-1.88
-0.78
0.40
1.68
3.03
4.31
5.30
5.70
5.21
3.57
0.69
-3.22
-7.60
-11.59
-14.26
-14.81
-12.89
-8.70
-2.96
3.35
9.27
14.15
17.79
20.45
22.54
24.46
26.35
28.08
29.40
30.18
30.48
30.56
30.73
31.10
31.55
31.74
31.36
30.25
28.55
26.57
24.64
22.96
21.52
20.12
18.54
16.54
14.00
10.83
6.98
2.42
-2.74
-8.27
-13.73
-18.60
-22.48
-25.23
-27.04
-28.36
-29.60
-30.90
-32.00
-32.42
-31.63
-29.39
-25.77
-21.12
-15.87
-10.33
-4.62
1.25
7.17
12.90
17.99
21.91
24.26
24.98
24.33
22.88
21.29
20.09
19.46
19.26
19.11
18.60
17.45
15.64
13.27
10.50
7.40
3.97
0.19
-3.86
-7.89
-11.51
-14.32
-16.18
-17.26
-17.98
-18.90
-20.47
-22.84
-25.86
-29.12
-32.03
-34.01
-34.58
-33.41
-30.43
-25.84
-20.09
-13.76
-7.38
-1.32
4.26
9.38
14.15
18.65
22.91
26.90
30.58
33.94
36.99
39.78
42.29
44.51
46.37
47.83
48.86
49.43
49.52
49.11
48.19
46.75
44.78
42.24
39.11
35.39
31.12
26.49
21.76
17.20
13.04
9.32
5.94
2.64
-0.86
-4.78
-9.14
-13.74
-18.14
-21.74
-24.03
-24.69
-23.81
-21.81
-19.30
-16.83
-14.73
-13.00
-11.42
-9.72
-7.74
-5.52
-3.18
-0.91
1.21
3.19
5.09
6.93
8.57
9.78
10.26
9.84
8.54
6.58
4.34
2.15
0.24
-1.36
-2.70
-3.84
-4.85
-5.78
-6.68
-7.60
-8.55
-9.49
-10.37
-11.18
-12.02
-13.10
-14.66
-16.82
-19.49
-22.33
-24.78
-26.27
-26.28
-24.57
-21.22
-16.70
-11.75
-7.22
-3.80
-1.82
-1.08
-0.95
-0.69
0.36
2.53
5.75
9.73
14.06
18.37
22.31
25.57
27.84
28.88
28.56
27.02
24.58
21.75
19.02
16.74
15.02
13.70
12.44
10.86
8.65
5.71
2.13
-1.80
-5.79
-9.56
-12.96
-15.93
-18.49
-20.65
-22.42
-23.74
-24.54
-24.71
-24.19
-22.92
-20.91
-18.19
-14.87
-11.08
-6.98
-2.75
1.47
5.55
9.36
12.73
15.46
17.38
18.46
18.85
18.91
19.04
19.49
20.24
20.97
21.25
20.75
19.39
17.37
15.06
12.81
10.85
9.19
7.73
6.27
4.64
2.72
0.50
-1.98
-4.68
-7.57
-10.68
-14.11
-17.92
-22.03
-26.21
-29.98
-32.80
-34.16
-33.77
-31.60
-27.90
-23.10
-17.71
-12.21
-6.99
-2.31
1.74
5.27
8.53
11.79
15.24
18.90
22.54
25.84
28.50
30.40
31.67
32.58
33.43
34.35
35.26
35.96
36.30
36.31
36.28
36.64
37.76
39.82
42.80
46.51
50.74
55.26
59.77
63.90
67.23
69.55
70.98
71.94
72.81
73.60
73.62
71.64
66.31
56.74
43.00
26.26
8.50
-7.98
-21.09
-29.32
-31.83
-28.42
-19.31
-5.07
13.46
35.02
57.88
79.83
98.48
111.79
118.67
119.26
114.90
107.60
99.33
91.48
84.59
78.53
72.83
67.07
60.93
54.20
46.65
38.07
28.40
17.96
7.46
-2.15
-10.11
-16.13
-20.56
-24.12
-27.54
-31.17
-34.89
-38.27
-40.94
-42.76
-43.86
-44.45
-44.55
-43.99
-42.46
-39.81
-36.25
-32.29
-28.55
-25.45
-23.05
-21.13
-19.45
-18.02
-17.25
-17.79
-20.24
-24.79
-31.07
-38.29
-45.57
-52.31
-58.36
-63.99
-69.55
-75.04
-80.01
-83.59
-84.89
-83.43
-79.30
-73.10
-65.61
-57.40
-48.57
-38.89
-28.00
-15.82
-2.77
10.26
22.14
31.86
38.86
43.23
45.67
47.30
49.34
52.75
57.96
64.41
70.15
71.67
64.36
43.86
7.95
-41.70
-98.75
-153.26
-194.26
-212.84
-204.84
-171.79
-120.26
-59.79
-0.56
48.63
81.57
95.17
89.40
66.93
32.36
-8.64
-50.47
-88.44
-119.40
-141.96
-156.32
-163.83
-166.33
-165.59
-162.97
-159.18
-154.50
-149.09
-143.28
-137.59
-132.56
-128.44
-124.87
-120.85
-115.08
-106.50
-94.76
-80.38
-64.56
-48.57
-33.33
-19.09
-5.55
7.88
21.72
36.35
51.98
68.74
86.65
105.51
124.66
142.92
158.67
170.21
176.36
176.87
172.60
165.24
156.69
148.13
139.31
128.37
112.47
89.01
57.02
18.04
-23.91
-63.27
-94.35
-112.74
-116.04
-104.30
-79.78
-46.71
-10.62
22.41
46.93
59.17
57.85
44.23
21.46
-6.39
-35.35
-62.12
-84.36
-100.65
-110.40
-113.84
-111.79
-105.49
-96.20
-84.93
-72.34
-58.79
-44.61
-30.31
-16.65
-4.61
4.89
11.15
13.88
13.31
10.01
4.83
-1.38
-7.78
-13.69
-18.50
-21.68
-22.82
-21.71
-18.48
-13.62
-7.93
-2.36
2.20
5.06
5.82
4.41
1.08
-3.52
-8.42
-12.44
-14.46
-13.77
-10.29
-4.63
2.21
9.23
15.76
21.58
26.82
31.70
36.37
40.79
44.76
48.09
50.57
52.08
52.61
52.19
50.92
48.96
46.48
43.60
40.46
37.23
34.13
31.44
29.37
28.00
27.19
26.63
26.02
25.14
23.90
22.31
20.33
17.87
14.79
11.05
6.80
2.40
-1.65
-4.86
-6.80
-7.21
-5.99
-3.22
0.84
5.83
11.30
16.85
22.22
27.31
32.18
36.92
41.63
46.35
51.00
55.47
59.60
63.21
66.14
68.18
69.11
68.67
66.60
62.64
56.65
48.69
39.07
28.40
17.53
7.36
-1.35
-8.27
-13.60
-17.99
-22.35
-27.52
-34.03
-42.03
-51.37
-61.70
-72.62
-83.70
-94.41
-104.04
-111.79
-116.91
-118.95
-118.03
-114.76
-110.13
-105.21
-100.73
-97.00
-93.78
-90.48
-86.36
-80.80
-73.40
-64.15
-53.37
-41.67
-29.82
-18.61
-8.60
-0.07
7.05
13.04
18.18
22.61
26.31
29.15
30.97
31.75
31.53
30.41
28.50
25.87
22.68
19.15
15.66
12.64
10.49
9.42
9.41
10.27
11.68
13.29
14.88
16.31
17.46
18.23
18.41
17.71
15.73
12.11
6.69
-0.29
-8.05
-15.33
-20.67
-22.98
-21.94
-18.18
-13.06
-8.19
-4.84
-3.57
-4.27
-6.36
-9.20
-12.25
-15.08
-17.28
-18.41
-18.11
-16.21
-12.88
-8.62
-4.00
0.46
4.54
8.24
11.62
14.65
17.14
18.81
19.36
18.62
16.59
13.33
8.98
3.70
-2.29
-8.62
-14.82
-20.31
-24.56
-27.15
-27.91
-26.90
-24.35
-20.64
-16.13
-11.05
-5.43
1.00
8.61
17.70
28.18
39.34
49.98
58.62
64.03
65.69
63.97
60.08
55.58
51.88
49.73
49.10
49.28
49.19
47.75
44.09
37.65
28.28
16.28
2.49
-11.80
-24.96
-35.41
-41.97
-44.14
-42.23
-37.22
-30.52
-23.60
-17.58
-13.00
-9.66
-6.80
-3.52
0.72
5.72
10.65
14.41
16.38
16.76
16.60
17.28
19.81
24.48
30.79
37.93
45.24
52.42
59.51
66.54
73.19
78.81
82.49
83.49
81.48
76.66
69.61
61.02
51.35
40.91
29.97
19.12
9.34
1.83
-2.45
-3.30
-1.47
1.58
4.44
6.45
8.21
11.43
18.09
29.40
45.07
63.09
80.44
94.13
102.22
104.28
101.11
93.99
84.02
71.77
57.46
41.26
23.51
4.67
-14.87
-34.82
-54.94
-74.79
-93.76
-111.09
-126.22
-138.85
-148.91
-156.34
-160.86
-162.12
-159.98
-154.73
-147.17
-138.34
-129.12
-119.93
-110.79
-101.58
-92.32
-83.36
-75.26
-68.57
-63.53
-59.92
-57.23
-54.80
-52.15
-49.14
-45.92
-42.84
-40.24
-38.33
-37.13
-36.54
-36.45
-36.66
-36.92
-36.89
-36.20
-34.51
-31.69
-27.82
-23.18
-18.07
-12.73
-7.23
-1.57
4.26
10.20
16.04
21.52
26.39
30.46
33.66
36.02
37.65
38.69
39.30
39.60
39.66
39.55
39.29
38.91
38.40
37.65
36.55
35.00
32.99
30.68
28.36
26.35
24.81
23.67
22.65
21.28
19.16
16.13
12.32
8.21
4.53
2.06
1.46
3.06
6.76
12.05
18.16
24.47
30.82
37.71
46.08
56.89
70.49
86.22
102.52
117.38
129.13
136.98
141.14
142.52
142.09
140.46
137.77
133.88
128.79
122.84
116.67
111.00
106.22
102.17
98.08
92.72
84.74
72.94
56.62
35.84
11.59
-14.26
-39.23
-60.78
-76.96
-86.87
-90.79
-89.79
-85.08
-77.34
-66.20
-50.23
-27.37
4.15
44.74
92.65
143.65
191.77
230.66
255.35
263.49
255.70
234.62
203.44
164.72
120.07
70.88
19.35
-31.12
-76.55
-113.75
-141.67
-161.68
-176.68
-189.41
-201.06
-210.95
-217.30
-218.70
-215.16
-208.34
-200.64
-194.06
-189.33
-185.76
-181.93
-176.51
-168.97
-159.76
-150.03
-141.05
-133.70
-128.26
-124.39
-121.34
-118.28
-114.47
-109.49
-103.19
-95.69
-87.26
-78.15
-68.62
-58.77
-48.70
-38.43
-28.06
-17.76
-7.80
1.48
9.74
16.70
22.23
26.40
29.42
31.59
33.14
34.14
34.58
34.38
33.58
32.42
31.44
31.30
32.63
35.82
40.82
47.08
53.64
59.40
63.38
65.02
64.27
61.55
57.48
52.63
47.33
41.64
35.49
29.00
22.66
17.38
14.32
14.46
18.23
25.18
34.10
43.43
51.87
58.94
65.17
71.80
80.09
90.65
103.12
116.20
128.19
137.45
142.72
143.16
138.36
128.28
113.39
94.78
74.19
53.71
35.34
20.58
10.19
4.12
1.80
2.31
4.65
7.90
11.45
15.09
19.12
24.17
30.86
39.45
49.69
60.89
72.21
83.08
93.37
103.32
113.25
123.07
132.02
138.63
140.93
136.95
125.29
105.50
78.42
46.03
11.19
-23.03
-54.12
-80.77
-103.17
-122.71
-141.20
-159.77
-178.19
-194.70
-206.70
-211.88
-209.11
-198.92
-183.04
-163.64
-142.52
-120.87
-99.49
-79.14
-60.74
-45.06
-32.17
-21.06
-9.81
3.63
20.38
39.97
60.36
78.74
92.65
100.85
103.53
101.74
96.67
88.99
78.84
66.20
51.36
35.14
18.62
2.65
-12.65
-27.91
-44.14
-62.12
-81.78
-102.06
-121.08
-136.79
-147.59
-152.78
-152.57
-147.65
-138.55
-125.11
-106.43
-81.32
-49.18
-10.80
31.40
73.58
111.37
140.68
158.49
163.17
154.71
134.59
105.46
70.58
33.14
-4.42
-40.61
-74.68
-106.00
-133.51
-155.64
-170.72
-177.81
-177.23
-170.60
-160.16
-148.03
-135.61
-123.47
-111.77
-100.64
-90.38
-81.40
-73.93
-67.79
-62.44
-57.19
-51.52
-45.36
-38.96
-32.79
-27.25
-22.42
-18.08
-13.81
-9.19
-4.03
1.58
7.30
12.67
17.33
21.09
23.92
25.85
26.91
27.12
26.57
25.43
23.96
22.44
21.03
19.71
18.37
16.84
15.03
13.01
10.94
8.97
7.17
5.48
3.76
1.83
-0.43
-3.15
-6.41
-10.21
-14.38
-18.49
-21.88
-23.75
-23.46
-20.80
-16.08
-10.04
-3.58
2.54
7.97
12.71
16.98
20.99
24.86
28.51
31.81
34.59
36.78
38.42
39.64
40.65
41.66
42.82
44.15
45.46
46.49
46.90
46.42
44.92
42.35
38.75
34.22
28.89
22.97
16.80
10.78
5.39
1.06
-1.91
-3.46
-3.80
-3.41
-2.95
-3.11
-4.47
-7.37
-11.80
-17.41
-23.50
-29.15
-33.35
-35.22
-34.32
-30.79
-25.34
-18.98
-12.74
-7.17
-2.30
2.28
7.08
12.47
18.41
24.54
30.38
35.43
39.38
42.09
43.61
44.12
43.89
43.19
42.26
41.23
40.14
39.00
37.78
36.49
35.09
33.52
31.70
29.53
26.97
24.05
20.87
17.61
14.44
11.55
9.10
7.20
5.88
5.02
4.41
3.70
2.53
0.57
-2.24
-5.65
-9.04
-11.55
-12.38
-11.07
-7.70
-2.88
2.62
8.31
14.28
21.25
30.23
41.91
56.18
71.96
87.38
100.44
109.54
113.90
113.61
109.45
102.50
93.92
84.75
75.81
67.61
60.23
53.35
46.30
38.31
28.86
17.84
5.66
-6.91
-19.05
-30.09
-39.72
-48.07
-55.51
-62.48
-69.26
-75.84
-81.94
-87.23
-91.47
-94.70
-97.20
-99.26
-101.01
-102.30
-102.72
-101.80
-99.14
-94.57
-88.17
-80.21
-71.15
-61.51
-51.84
-42.65
-34.19
-26.48
-19.30
-12.31
-5.23
1.98
9.10
15.69
21.27
25.47
28.11
29.29
29.28
28.48
27.33
26.17
25.23
24.59
24.19
23.88
23.49
22.88
22.00
20.84
19.43
17.80
15.98
14.02
12.02
10.06
8.20
6.43
4.67
2.80
0.73
-1.57
-4.05
-6.64
-9.26
-11.74
-13.85
-15.27
-15.59
-14.48
-11.72
-7.38
-1.72
4.77
11.61
18.33
24.65
30.45
35.76
40.72
45.50
50.32
55.39
60.90
66.97
73.56
80.39
86.95
92.60
96.73
99.03
99.60
98.90
97.66
96.57
96.10
96.36
97.12
97.89
98.07
97.05
94.37
89.74
83.09
74.60
64.65
53.73
42.40
31.09
20.06
9.37
-1.08
-11.45
-21.77
-31.85
-41.28
-49.46
-55.74
-59.67
-61.22
-60.93
-59.83
-59.12
-59.62
-61.27
-63.00
-63.05
-59.66
-51.82
-39.69
-24.51
-7.98
8.56
24.65
40.90
58.59
78.91
102.28
127.90
153.82
177.47
196.37
208.74
213.73
211.10
200.88
183.15
158.17
126.82
90.95
53.19
16.28
-17.78
-48.33
-75.91
-101.55
-125.83
-148.52
-168.61
-185.08
-197.44
-206.07
-211.88
-215.74
-218.02
-218.45
-216.46
-211.56
-203.76
-193.48
-181.38
-168.02
-153.73
-138.63
-122.86
-106.72
-90.69
-75.29
-60.80
-47.09
-33.64
-19.86
-5.50
9.07
22.85
34.62
43.54
49.61
53.66
57.00
60.68
64.97
69.12
71.70
71.22
66.78
58.51
47.49
35.29
23.52
13.30
5.13
-1.07
-5.63
-8.90
-11.13
-12.37
-12.62
-11.77
-9.69
-6.10
-0.61
7.20
17.63
30.58
45.51
61.42
77.04
91.13
102.74
111.34
116.85
119.52
119.82
118.40
115.99
113.24
110.57
108.01
105.14
101.18
95.23
86.45
74.20
58.02
37.66
13.37
-13.89
-42.27
-69.33
-92.72
-111.02
-124.17
-133.23
-139.61
-144.21
-146.99
-147.28
-144.47
-138.73
-131.18
-123.37
-116.62
-111.42
-107.35
-103.57
-99.37
-94.55
-89.47
-84.72
-80.70
-77.37
-74.33
-71.01
-67.09
-62.64
-58.13
-54.22
-51.41
-49.82
-49.12
-48.71
-47.89
-46.13
-43.18
-39.04
-33.91
-28.12
-22.06
-16.13
-10.63
-5.69
-1.29
2.79
6.80
10.88
15.00
18.94
22.38
25.06
26.90
27.98
28.58
28.97
29.35
29.74
30.05
30.13
29.86
29.21
28.24
27.11
25.98
25.02
24.28
23.72
23.18
22.41
21.18
19.40
17.16
14.76
12.54
10.78
9.48
8.38
7.05
5.05
2.08
-1.85
-6.47
-11.22
-15.43
-18.39
-19.54
-18.65
-16.04
-12.69
-10.30
-11.14
-17.56
-31.32
-52.94
-81.19
-113.11
-144.48
-170.68
-187.78
-193.38
-187.08
-170.40
-146.41
-119.18
-93.23
-73.04
-62.05
-61.56
-69.62
-80.94
-88.26
-84.83
-67.17
-36.64
1.12
38.64
69.76
91.89
106.27
116.45
126.05
137.12
149.85
163.48
177.41
191.68
206.62
222.01
236.47
247.56
252.60
249.90
239.65
224.25
207.65
194.24
187.58
189.29
198.42
211.44
222.99
227.21
219.46
197.91
164.31
123.61
82.83
49.31
29.33
26.92
42.99
74.79
116.04
157.98
191.49
209.56
209.01
190.86
159.07
118.53
73.37
26.39
-20.40
-64.90
-104.54
-136.70
-159.65
-173.21
-178.84
-178.96
-176.15
-172.40
-168.86
-165.99
-163.89
-162.57
-162.17
-162.94
-165.11
-168.65
-173.15
-177.77
-181.43
-183.00
-181.73
-177.61
-171.75
-166.46
-164.91
-170.01
-182.96
-202.07
-222.56
-237.78
-241.35
-229.33
-201.49
-161.06
-113.36
-64.11
-18.14
21.03
51.06
70.63
79.50
78.83
71.33
60.82
51.28
45.75
45.50
49.89
56.94
64.27
69.94
73.08
73.81
72.87
71.08
68.97
66.53
63.28
58.45
51.29
41.40
29.03
15.21
1.60
-9.99
-18.26
-22.82
-24.26
-23.80
-22.61
-21.44
-20.39
-19.09
-17.08
-14.04
-9.80
-4.34
2.31
10.08
18.80
28.09
37.35
45.87
52.84
57.54
59.53
58.87
56.23
52.78
49.74
47.88
47.15
46.71
45.35
42.20
37.16
31.02
25.11
20.95
19.85
22.58
29.09
38.27
47.85
54.80
56.23
50.52
38.15
21.69
4.81
-9.09
-18.07
-22.06
-22.34
-20.66
-18.31
-15.86
-13.33
-10.66
-8.01
-5.79
-4.39
-3.88
-3.84
-3.64
-2.70
-0.88
1.46
3.73
5.45
6.54
7.36
8.38
9.94
11.98
14.18
16.19
17.86
19.22
20.35
21.13
21.26
20.44
18.65
16.28
14.09
12.81
12.75
13.64
14.76
15.31
14.85
13.52
11.88
10.52
9.76
9.42
9.01
8.09
6.52
4.55
2.60
1.00
-0.28
-1.52
-3.07
-5.14
-7.65
-10.38
-13.13
-15.90
-18.82
-21.92
-25.05
-27.78
-29.57
-30.04
-29.12
-26.99
-24.01
-20.51
-16.73
-12.82
-8.98
-5.38
-2.16
0.65
3.24
5.87
8.76
11.96
15.17
17.78
19.10
18.56
16.08
12.14
7.71
3.85
1.28
0.02
-0.53
-1.31
-3.04
-5.85
-9.21
-12.25
-14.22
-14.87
-14.55
-14.01
-14.00
-15.00
-17.00
-19.59
-22.26
-24.60
-26.58
-28.53
-30.94
-34.18
-38.27
-42.81
-47.13
-50.48
-52.32
-52.39
-50.53
-46.60
-40.41
-31.97
-21.85
-11.38
-2.46
3.19
4.94
3.80
2.11
2.51
6.58
14.06
22.99
30.84
35.84
37.82
37.89
37.53
37.54
37.65
36.88
34.37
30.06
24.75
19.61
15.59
12.98
11.40
10.11
8.37
5.68
1.83
-3.03
-8.50
-14.00
-18.90
-22.73
-25.20
-26.26
-25.93
-24.26
-21.34
-17.40
-12.81
-7.97
-3.16
1.58
6.36
11.17
15.69
19.20
20.89
20.34
17.85
14.59
12.18
12.17
15.39
21.75
30.31
39.73
48.72
56.37
62.11
65.54
66.31
64.18
59.26
52.30
44.60
37.63
32.40
29.00
26.59
23.90
19.88
14.23
7.41
0.31
-6.28
-12.04
-17.03
-21.57
-25.91
-30.16
-34.40
-38.76
-43.42
-48.55
-54.13
-60.01
-65.91
-71.51
-76.58
-80.83
-83.91
-85.40
-84.94
-82.37
-77.87
-71.89
-65.01
-57.69
-50.22
-42.75
-35.48
-28.73
-22.96
-18.56
-15.61
-13.77
-12.39
-10.73
-8.27
-4.91
-1.02
2.78
5.96
8.30
10.06
11.85
14.35
17.92
22.38
26.98
30.66
32.51
32.14
29.88
26.56
23.17
20.37
18.22
16.37
14.32
11.84
9.10
6.55
4.60
3.32
2.48
1.73
0.94
0.34
0.26
0.73
1.24
0.93
-0.96
-4.47
-8.81
-12.66
-14.91
-15.23
-14.11
-12.27
-10.12
-7.37
-3.35
2.40
9.55
17.05
23.57
28.25
31.05
32.63
33.84
35.18
36.61
37.72
38.12
37.71
36.73
35.62
34.78
34.51
34.94
36.12
37.97
40.26
42.43
43.59
42.69
38.83
31.77
22.17
11.56
1.79
-5.77
-10.82
-14.26
-17.59
-21.96
-27.46
-33.03
-37.07
-38.44
-37.19
-34.52
-32.16
-31.47
-32.87
-35.90
-39.75
-43.89
-48.32
-53.38
-59.24
-65.47
-71.00
-74.56
-75.35
-73.47
-70.05
-66.75
-64.92
-65.02
-66.23
-66.86
-65.02
-59.54
-50.48
-39.14
-27.49
-17.34
-9.63
-4.21
-0.20
3.41
7.16
10.96
14.23
16.37
16.98
15.99
13.41
9.28
3.62
-3.26
-10.49
-16.72
-20.47
-20.78
-17.61
-11.95
-5.32
0.73
5.27
8.15
9.92
11.52
13.81
17.24
21.65
26.30
30.20
32.65
33.54
33.38
32.93
32.53
31.68
29.10
23.39
13.91
1.47
-11.50
-21.63
-25.86
-22.86
-13.81
-2.18
7.57
11.70
8.60
-0.60
-12.70
-23.68
-30.16
-30.36
-24.30
-13.44
-0.07
13.24
24.03
30.34
31.01
25.91
15.99
2.95
-11.20
-24.44
-34.99
-41.46
-43.06
-39.68
-32.12
-21.90
-11.06
-1.50
5.55
9.99
12.83
15.77
20.51
28.02
38.12
49.48
59.96
67.34
69.92
66.93
58.77
46.83
33.19
20.12
9.63
3.04
0.78
2.33
6.40
11.28
15.18
16.65
14.88
9.87
2.48
-5.73
-12.85
-17.13
-17.42
-13.53
-6.24
2.95
12.30
20.31
26.33
30.80
35.31
42.26
54.03
72.02
95.80
122.86
149.23
170.53
183.27
185.71
178.19
162.78
142.53
120.65
99.67
80.81
63.90
47.72
30.81
12.40
-7.00
-25.87
-42.47
-55.83
-66.21
-74.80
-82.80
-90.65
-97.66
-102.52
-104.01
-101.68
-96.06
-88.49
-80.70
-74.35
-70.84
-71.01
-75.05
-82.33
-91.39
-100.12
-106.05
-106.93
-101.36
-89.34
-72.53
-53.92
-36.99
-24.44
-17.13
-13.75
-11.41
-7.07
0.86
11.73
22.80
30.70
33.10
29.97
23.67
17.95
16.22
20.13
28.79
39.17
47.24
49.52
44.35
32.50
17.01
2.29
-7.29
-8.88
-2.36
9.48
21.77
29.37
28.81
19.53
3.85
-14.21
-30.64
-42.80
-49.89
-52.47
-51.64
-48.35
-43.20
-36.80
-30.07
-24.24
-20.38
-18.76
-18.53
-17.89
-14.81
-7.92
2.76
15.69
28.21
37.47
41.46
39.67
33.30
24.87
17.35
13.29
13.85
18.53
25.28
31.26
33.96
32.12
26.23
18.17
10.39
4.88
2.38
2.36
3.43
4.20
3.85
2.35
0.13
-2.44
-5.36
-8.98
-13.66
-19.29
-25.17
-30.14
-33.07
-33.43
-31.49
-28.24
-24.91
-22.39
-20.87
-19.81
-18.25
-15.34
-10.78
-5.01
0.90
5.69
8.40
8.86
7.72
6.26
5.80
7.15
10.17
13.79
16.42
16.66
14.06
9.43
4.66
2.01
3.13
8.26
15.87
23.18
27.13
25.72
18.93
8.89
-0.85
-6.71
-6.55
-0.66
8.26
16.18
19.38
15.91
6.45
-6.11
-17.93
-25.75
-28.19
-25.96
-21.41
-17.28
-15.55
-16.79
-20.18
-24.21
-27.49
-29.35
-29.98
-30.09
-30.51
-31.73
-33.81
-36.61
-40.05
-44.45
-50.52
-59.04
-70.22
-83.15
-95.66
-104.96
-108.83
-106.64
-99.59
-89.99
-79.84
-69.66
-58.34
-44.03
-25.59
-3.69
19.23
39.92
55.84
66.13
71.69
74.54
76.97
81.12
88.82
101.42
119.46
141.96
166.13
187.61
201.59
204.33
194.50
173.61
145.40
114.53
85.21
60.35
41.36
28.48
21.07
18.02
17.87
19.21
20.97
22.71
24.50
26.55
28.92
31.23
32.91
33.48
32.85
31.28
29.09
26.41
23.05
18.74
13.44
7.55
1.81
-3.00
-6.58
-9.16
-11.46
-14.26
-18.01
-22.61
-27.54
-32.19
-36.17
-39.49
-42.43
-45.19
-47.72
-49.61
-50.36
-49.64
-47.50
-44.36
-40.81
-37.35
-34.23
-31.40
-28.64
-25.67
-22.23
-18.25
-13.75
-8.98
-4.26
-0.01
3.50
6.15
8.04
9.39
10.43
11.30
12.02
12.53
12.81
12.94
13.08
13.35
13.69
13.84
13.48
12.48
11.14
10.01
9.68
10.30
11.39
11.97
11.09
8.44
4.53
0.48
-2.56
-4.02
-4.25
-4.35
-5.78
-9.94
-17.74
-29.43
-44.34
-60.74
-75.88
-86.46
-89.56
-83.78
-69.96
-51.19
-31.76
-15.70
-5.46
-1.23
-1.37
-3.43
-5.19
-5.32
-3.44
0.27
5.41
11.48
17.79
23.32
26.80
27.12
23.82
17.36
9.10
0.80
-6.02
-10.53
-12.83
-13.65
-14.02
-14.76
-16.17
-18.03
-19.74
-20.75
-20.77
-19.93
-18.68
-17.51
-16.65
-15.92
-14.86
-12.89
-9.70
-5.38
-0.35
4.90
10.01
14.90
19.65
24.35
29.00
33.45
37.63
41.61
45.60
49.76
53.98
57.76
60.40
61.44
60.97
59.87
59.54
61.30
65.80
72.63
80.37
87.07
90.84
90.47
85.60
76.61
64.31
49.69
33.82
17.81
2.82
-10.21
-20.79
-28.86
-34.62
-38.14
-39.18
-37.48
-33.22
-27.56
-22.61
-20.73
-23.64
-31.56
-43.17
-56.22
-68.50
-78.60
-86.07
-91.11
-94.06
-95.09
-94.19
-91.41
-87.15
-82.24
-77.82
-74.86
-73.79
-74.28
-75.46
-76.41
-76.61
-76.02
-74.62
-71.89
-66.84
-58.69
-48.08
-37.51
-30.46
-29.53
-34.67
-42.80
-49.36
-50.66
-45.46
-34.63
-19.46
-0.16
24.27
54.50
89.20
124.52
155.66
179.37
195.68
207.48
218.31
229.75
240.27
246.14
243.70
231.61
211.60
187.51
163.51
142.31
124.43
108.51
92.48
74.94
56.02
37.39
21.30
9.34
1.55
-3.61
-8.31
-14.04
-20.65
-26.43
-29.41
-28.88
-26.54
-26.15
-32.02
-46.89
-70.55
-99.75
-129.59
-155.56
-174.95
-187.30
-193.54
-194.76
-191.36
-183.09
-169.83
-152.38
-132.75
-113.53
-97.01
-84.32
-75.34
-69.06
-64.22
-59.48
-53.44
-44.66
-32.06
-15.65
2.93
20.56
33.72
39.81
38.23
30.31
18.49
5.17
-8.02
-20.30
-31.45
-41.59
-51.04
-60.28
-69.63
-78.77
-86.42
-90.62
-89.56
-82.46
-70.05
-54.12
-36.67
-19.02
-1.63
15.41
31.61
45.72
55.86
60.34
58.52
51.18
40.44
29.07
19.75
14.33
13.57
17.16
24.13
33.32
43.79
55.13
67.25
80.20
93.76
107.25
119.57
129.51
136.03
138.57
136.97
131.41
122.19
109.67
94.40
77.24
59.39
42.25
27.12
14.86
5.65
-0.90
-5.58
-9.20
-12.38
-15.42
-18.40
-21.30
-24.17
-27.13
-30.39
-34.20
-38.73
-44.08
-50.19
-56.82
-63.51
-69.69
-74.68
-77.98
-79.40
-79.16
-77.87
-76.25
-74.90
-73.95
-73.11
-71.81
-69.49
-65.93
-61.38
-56.44
-51.78
-47.90
-44.92
-42.73
-41.08
-39.89
-39.31
-39.67
-41.25
-43.95
-47.20
-49.93
-50.92
-49.15
-44.12
-36.00
-25.54
-13.89
-2.40
7.46
14.39
17.50
16.69
12.89
7.97
4.26
3.77
7.46
14.99
24.85
35.09
43.85
49.77
51.87
49.41
41.71
28.45
10.02
-12.11
-35.44
-56.87
-73.50
-83.27
-85.36
-80.09
-68.57
-52.28
-32.83
-11.91
8.86
27.86
43.72
55.45
62.64
65.41
64.33
60.27
54.13
46.72
38.65
30.37
22.16
14.24
6.85
0.26
-5.27
-9.54
-12.48
-14.22
-15.03
-15.34
-15.51
-15.76
-15.99
-15.87
-14.90
-12.70
-9.19
-4.69
0.15
4.63
8.19
10.60
12.01
12.82
13.55
14.66
16.41
18.87
21.88
25.15
28.27
30.85
32.56
33.15
32.53
30.76
28.10
24.97
21.90
19.36
17.61
16.62
16.07
15.56
14.76
13.55
12.03
10.39
8.77
7.21
5.66
4.02
2.23
0.24
-1.97
-4.40
-6.93
-9.24
-10.80
-11.02
-9.42
-5.89
-0.74
5.44
11.95
18.23
23.95
28.96
33.18
36.54
38.91
40.15
40.20
39.09
37.00
34.14
30.73
26.96
22.90
18.60
14.09
9.48
4.94
0.69
-3.06
-6.18
-8.68
-10.64
-12.18
-13.35
-14.18
-14.63
-14.73
-14.60
-14.45
-14.56
-15.21
-16.65
-19.03
-22.41
-26.74
-31.73
-36.85
-41.37
-44.38
-45.11
-43.14
-38.57
-32.06
-24.48
-16.74
-9.44
-2.80
3.26
8.89
14.19
19.08
23.37
26.83
29.35
30.93
31.70
31.86
31.65
31.26
30.85
30.51
30.30
30.20
30.15
29.96
29.30
27.73
24.83
20.26
14.06
6.58
-1.48
-9.28
-16.08
-21.35
-24.87
-26.71
-27.15
-26.59
-25.59
-24.73
-24.50
-25.17
-26.61
-28.33
-29.57
-29.64
-28.13
-25.10
-21.02
-16.50
-12.08
-8.01
-4.20
-0.41
3.58
7.72
11.72
15.11
17.58
19.02
19.67
19.91
20.10
20.40
20.76
20.99
20.93
20.57
19.93
19.04
17.78
15.87
13.05
9.25
4.72
0.00
-4.16
-7.13
-8.52
-8.32
-6.94
-5.05
-3.48
-2.95
-3.92
-6.39
-9.91
-13.68
-16.81
-18.51
-18.28
-15.87
-11.21
-4.41
4.22
14.00
23.92
32.87
40.09
45.44
49.48
53.08
56.89
60.84
64.16
65.84
65.25
62.48
58.43
54.22
50.70
48.06
45.85
43.30
39.72
34.78
28.51
21.21
13.25
5.06
-2.88
-10.01
-15.85
-20.07
-22.65
-23.87
-24.12
-23.77
-23.06
-22.05
-20.79
-19.38
-18.02
-16.98
-16.55
-16.94
-18.29
-20.59
-23.67
-27.24
-30.92
-34.45
-37.82
-41.41
-45.75
-51.26
-57.90
-64.99
-71.36
-75.72
-77.00
-74.68
-68.83
-60.03
-49.24
-37.62
-26.44
-16.88
-9.88
-5.90
-4.83
-6.04
-8.57
-11.43
-13.81
-15.17
-15.25
-14.01
-11.51
-7.90
-3.40
1.73
7.19
12.70
17.98
22.79
26.92
30.16
32.24
32.87
31.75
28.71
23.77
17.32
10.04
2.85
-3.33
-7.74
-10.04
-10.32
-9.05
-7.00
-4.87
-3.16
-1.92
-0.83
0.63
2.92
6.11
9.86
13.56
16.58
18.63
19.83
20.64
21.58
22.95
24.65
26.28
27.37
27.53
26.72
25.15
23.23
21.34
19.73
18.56
17.89
17.84
18.58
20.22
22.61
25.27
27.41
28.17
27.00
23.88
19.40
14.52
10.20
7.02
5.06
4.01
3.54
3.57
4.46
6.80
11.02
17.17
24.72
32.76
40.34
46.73
51.43
54.28
55.57
56.33
58.39
63.96
74.74
90.81
109.91
127.79
139.29
140.06
127.74
102.46
66.50
23.59
-21.80
-64.95
-101.28
-126.96
-139.72
-139.55
-129.02
-112.70
-96.04
-83.84
-79.11
-82.30
-91.51
-103.35
-114.19
-121.35
-123.84
-122.37
-118.75
-114.90
-111.80
-109.15
-105.35
-98.25
-86.08
-68.32
-46.04
-21.76
1.29
20.10
32.58
37.91
36.39
29.14
17.77
4.17
-9.55
-21.25
-28.87
-30.92
-26.70
-16.58
-1.91
15.31
32.74
48.23
60.03
67.01
68.68
65.25
57.52
46.86
35.08
24.18
16.05
11.84
11.57
13.82
16.05
15.41
9.65
-2.08
-19.07
-39.28
-60.03
-78.50
-92.12
-98.58
-96.04
-83.37
-60.75
-30.26
3.95
36.38
61.55
75.74
78.07
70.73
57.90
44.07
32.53
24.61
20.04
17.88
17.37
18.23
20.39
23.46
26.55
28.53
28.65
26.92
24.19
21.65
20.31
20.49
21.81
23.35
24.04
23.02
19.88
14.76
8.33
1.66
-4.11
-8.06
-9.91
-10.05
-9.38
-8.92
-9.38
-10.86
-12.96
-15.07
-16.71
-17.67
-17.96
-17.56
-16.25
-13.62
-9.31
-3.25
4.12
12.04
19.76
26.92
33.74
40.81
48.67
57.37
66.30
74.25
79.94
82.60
82.30
80.07
77.54
76.24
76.90
78.99
80.64
78.97
70.96
54.25
27.99
-6.77
-47.11
-88.70
-126.63
-156.36
-174.59
-179.99
-173.50
-158.15
-138.35
-118.80
-103.24
-93.70
-90.27
-91.56
-95.59
-100.42
-104.53
-106.66
-105.63
-100.30
-89.93
-74.68
-55.87
-35.78
-16.99
-1.48
9.91
17.62
22.93
27.39
32.30
38.35
45.59
53.60
61.73
69.31
75.83
80.95
84.37
85.82
84.98
81.64
75.97
68.53
60.24
51.96
44.23
37.34
31.50
27.21
25.22
26.09
29.35
32.94
33.26
26.24
9.02
-18.78
-54.63
-94.07
-132.14
-164.55
-187.97
-199.68
-197.36
-179.72
-147.93
-106.79
-64.36
-29.59
-8.83
-2.95
-6.92
-12.06
-9.90
4.61
31.94
68.95
111.01
153.81
194.11
229.58
258.48
279.58
292.52
298.11
298.04
294.31
288.29
280.33
269.98
256.68
240.65
223.31
207.07
194.25
185.78
180.12
173.26
159.80
135.07
97.17
48.08
-6.86
-60.51
-105.81
-137.25
-151.81
-149.34
-132.76
-107.89
-82.37
-63.88
-57.89
-65.98
-85.60
-111.48
-137.90
-160.75
-178.29
-190.72
-198.84
-203.06
-203.20
-198.92
-190.36
-178.28
-163.86
-148.31
-132.61
-117.56
-103.94
-92.59
-84.24
-79.11
-76.55
-75.10
-72.88
-68.46
-61.60
-53.48
-46.30
-42.34
-42.77
-47.09
-53.29
-58.73
-61.45
-61.13
-59.19
-58.20
-60.71
-68.13
-80.02
-93.82
-105.06
-108.16
-97.94
-71.74
-31.39
15.84
58.55
84.76
86.72
64.82
28.10
-9.01
-32.77
-35.80
-19.60
7.27
34.08
52.98
61.59
62.07
58.24
52.75
46.30
38.73
30.78
24.69
23.19
27.58
36.55
46.68
54.32
57.44
56.37
52.99
49.16
45.63
42.03
37.82
33.16
29.15
27.20
28.08
31.51
36.24
40.66
43.34
43.16
39.22
30.74
17.23
-0.96
-22.09
-42.93
-59.32
-67.46
-65.31
-53.71
-36.19
-17.64
-2.21
8.51
15.82
22.72
31.65
42.65
53.11
59.18
58.21
50.44
39.07
28.58
22.49
21.89
25.55
31.20
37.03
42.50
47.90
53.41
58.47
61.79
62.21
59.52
54.83
50.11
47.23
47.01
48.94
51.47
52.84
51.83
48.26
42.94
37.22
32.44
29.41
28.19
28.26
28.72
28.82
28.07
26.38
23.86
20.61
16.67
12.08
7.08
2.20
-1.79
-4.20
-4.74
-3.73
-2.04
-0.73
-0.67
-2.19
-5.05
-8.66
-12.41
-15.89
-18.99
-21.77
-24.36
-26.94
-29.77
-33.29
-37.90
-43.85
-51.00
-58.88
-66.95
-74.82
-82.38
-89.61
-96.28
-101.66
-104.72
-104.50
-100.67
-93.72
-84.77
-75.05
-65.31
-55.70
-45.93
-35.78
-25.50
-15.86
-7.82
-2.08
1.26
2.81
3.46
3.83
3.89
2.97
0.25
-4.59
-10.93
-17.32
-22.05
-23.99
-22.98
-19.91
-16.11
-12.67
-9.94
-7.62
-5.11
-2.04
1.53
5.18
8.53
11.47
14.18
16.86
19.32
20.79
20.22
16.77
10.54
2.78
-4.34
-8.53
-8.31
-3.53
4.75
14.80
25.07
34.71
43.66
52.37
61.28
70.47
79.46
87.41
93.36
96.60
96.84
94.25
89.32
82.63
74.68
65.75
56.12
46.23
36.79
28.74
22.89
19.53
18.18
17.76
16.99
15.06
12.12
9.26
8.16
10.33
16.52
26.42
38.80
51.90
63.91
73.41
79.58
82.31
82.17
80.14
77.27
74.19
70.77
66.16
59.23
49.24
36.37
21.94
7.89
-3.95
-12.62
-18.47
-22.87
-27.56
-33.75
-41.59
-50.04
-57.47
-62.43
-64.40
-63.95
-62.39
-61.03
-60.54
-60.78
-61.16
-61.28
-61.29
-61.82
-63.49
-66.29
-69.38
-71.41
-71.20
-68.37
-63.63
-58.40
-54.08
-51.41
-50.20
-49.61
-48.78
-47.28
-45.29
-43.25
-41.47
-39.72
-37.34
-33.62
-28.22
-21.41
-13.93
-6.60
0.04
5.87
11.04
15.74
19.99
23.71
26.79
29.26
31.23
32.83
34.12
35.05
35.54
35.61
35.35
34.95
34.49
33.92
33.03
31.52
29.09
25.55
20.88
15.35
9.42
3.70
-1.29
-5.27
-8.35
-10.90
-13.40
-16.19
-19.30
-22.47
-25.28
-27.38
-28.63
-29.09
-28.98
-28.56
-28.01
-27.47
-27.01
-26.65
-26.34
-25.89
-25.00
-23.31
-20.57
-16.86
-12.63
-8.70
-5.94
-4.93
-5.70
-7.67
-9.92
-11.54
-12.03
-11.41
-10.14
-8.92
-8.32
-8.66
-9.91
-11.81
-13.99
-16.08
-17.80
-19.03
-19.73
-20.00
-19.98
-19.90
-19.98
-20.46
-21.52
-23.16
-25.28
-27.57
-29.71
-31.47
-32.81
-33.77
-34.42
-34.69
-34.28
-32.83
-30.02
-25.83
-20.55
-14.73
-9.01
-3.98
0.07
3.13
5.51
7.73
10.26
13.36
16.82
19.93
21.64
20.93
17.26
10.89
2.93
-4.96
-11.16
-14.51
-14.77
-12.51
-8.81
-4.87
-1.63
0.44
1.23
0.89
-0.33
-2.14
-4.23
-6.25
-7.94
-9.19
-10.21
-11.44
-13.45
-16.56
-20.67
-25.06
-28.60
-30.18
-29.12
-25.54
-20.30
-14.60
-9.49
-5.38
-2.02
1.23
4.97
9.29
13.80
17.81
20.79
22.71
24.04
25.45
27.48
30.24
33.38
36.29
38.44
39.70
40.36
41.18
43.10
46.85
52.57
59.53
66.22
70.78
71.83
69.20
64.26
59.60
58.11
61.86
71.23
84.81
99.92
113.61
123.57
128.58
128.59
124.38
117.27
108.75
100.23
92.59
85.89
79.21
71.17
60.76
48.33
35.89
26.48
22.71
25.30
32.39
40.28
45.12
44.70
39.45
32.03
25.88
23.55
25.64
30.73
36.24
39.61
39.27
34.94
27.47
18.30
8.83
-0.03
-7.94
-15.03
-21.56
-27.62
-32.88
-36.82
-39.21
-40.70
-43.26
-50.06
-64.58
-89.24
-123.79
-164.34
-203.65
-232.91
-244.60
-235.03
-205.52
-161.45
-109.82
-56.54
-5.14
42.77
85.83
121.48
146.04
156.31
151.82
136.13
116.03
99.09
90.70
92.20
100.88
111.74
119.84
122.26
118.74
111.13
102.08
93.67
86.70
80.63
74.28
66.64
57.41
47.02
36.27
25.78
15.72
5.91
-3.71
-12.83
-20.67
-26.31
-29.30
-30.04
-29.78
-30.20
-32.66
-37.63
-44.47
-51.76
-57.87
-61.63
-62.65
-61.27
-58.22
-54.20
-49.56
-44.30
-38.26
-31.45
-24.20
-17.19
-11.27
-7.13
-5.15
-5.29
-7.19
-10.33
-14.27
-18.69
-23.39
-28.18
-32.86
-37.19
-41.00
-44.25
-47.13
-49.86
-52.52
-54.95
-56.71
-57.29
-56.47
-54.44
-51.74
-49.02
-46.50
-43.97
-40.85
-36.67
-31.44
-25.72
-20.29
-15.59
-11.33
-6.62
-0.40
7.97
18.35
30.03
42.08
53.79
64.65
74.10
81.07
83.92
80.85
70.85
54.62
34.94
16.05
2.15
-4.27
-3.51
1.34
5.65
5.12
-2.72
-17.79
-37.88
-59.77
-80.32
-97.07
-108.28
-112.96
-111.02
-103.80
-94.24
-86.27
-83.41
-87.18
-96.23
-106.94
-115.26
-118.74
-117.61
-114.30
-111.70
-111.32
-112.57
-113.33
-111.40
-105.86
-97.36
-87.52
-77.84
-68.98
-60.58
-51.68
-41.32
-28.92
-14.41
1.73
18.68
35.31
50.41
62.98
72.41
78.62
82.03
83.32
83.22
82.46
81.65
81.35
81.90
83.33
85.27
87.06
88.04
87.90
86.74
84.94
82.72
79.73
74.96
66.87
53.77
34.20
7.35
-26.73
-66.82
-110.45
-154.03
-193.41
-224.82
-245.90
-256.31
-257.62
-252.53
-243.70
-232.85
-220.42
-206.03
-189.20
-170.10
-149.74
-129.67
-111.37
-95.67
-82.56
-71.41
-61.45
-52.16
-43.42
-35.37
-28.08
-21.43
-15.14
-9.03
-3.22
1.75
5.18
6.57
5.89
3.61
0.43
-3.06
-6.53
-9.89
-13.09
-15.96
-18.34
-20.28
-22.32
-25.44
-30.73
-38.94
-49.83
-62.10
-73.47
-81.28
-83.16
-77.80
-65.37
-47.68
-27.76
-8.90
6.48
17.76
26.31
34.85
46.26
62.51
83.85
108.88
134.97
158.97
178.01
190.07
194.40
191.57
183.24
171.56
158.51
145.48
133.14
121.73
111.38
102.33
94.86
89.11
84.75
81.02
76.78
71.01
63.36
54.65
46.93
42.92
44.81
53.07
65.85
79.34
89.13
91.83
86.19
73.25
55.54
35.97
17.00
0.44
-12.41
-20.48
-23.05
-20.07
-12.44
-2.09
8.49
16.89
21.37
21.29
17.07
10.01
1.93
-5.21
-9.72
-10.50
-7.33
-0.92
7.32
15.68
22.74
27.77
30.87
32.76
34.32
36.15
38.43
40.96
43.56
46.33
49.66
53.99
59.33
65.01
69.70
71.81
70.13
64.30
54.86
43.06
30.37
18.08
7.03
-2.49
-10.67
-18.00
-25.07
-32.20
-39.18
-45.22
-49.18
-49.98
-47.09
-40.81
-32.10
-22.33
-12.78
-4.38
2.37
7.36
10.59
12.00
11.41
8.50
3.07
-4.68
-13.98
-23.59
-32.17
-38.72
-42.94
-45.22
-46.30
-46.89
-47.39
-47.95
-48.62
-49.51
-50.65
-51.92
-52.95
-53.17
-52.14
-49.71
-45.98
-41.21
-35.55
-29.07
-21.88
-14.37
-7.10
-0.65
4.73
9.33
13.98
19.72
27.46
37.68
50.21
64.20
78.23
90.46
98.98
102.23
99.55
91.53
79.94
67.25
55.71
46.44
39.16
32.55
25.27
17.02
9.02
3.44
2.13
5.22
10.50
13.86
10.68
-2.54
-26.91
-60.82
-100.45
-140.80
-176.89
-204.72
-221.92
-228.00
-224.18
-212.91
-197.16
-179.77
-162.92
-147.99
-135.61
-125.89
-118.60
-113.19
-108.82
-104.42
-98.93
-91.46
-81.67
-69.81
-56.53
-42.64
-28.65
-14.66
-0.41
14.37
29.59
44.63
58.38
69.57
77.19
80.80
80.54
77.04
71.06
63.33
54.43
44.88
35.24
26.08
18.01
11.44
6.54
3.30
1.48
0.77
0.72
0.79
0.37
-1.07
-3.73
-7.35
-11.22
-14.37
-15.94
-15.49
-13.11
-9.33
-4.76
0.14
5.27
10.78
16.85
23.54
30.63
37.68
44.21
49.84
54.39
57.82
60.17
61.47
61.68
60.80
58.95
56.39
53.50
50.63
47.97
45.43
42.76
39.66
35.93
31.59
26.84
21.99
17.26
12.79
8.54
4.39
0.15
-4.39
-9.37
-14.84
-20.62
-26.25
-31.04
-34.21
-35.13
-33.64
-30.11
-25.34
-20.28
-15.61
-11.57
-7.91
-4.13
0.23
5.36
11.10
17.00
22.55
27.32
31.04
33.66
35.21
35.82
35.64
34.88
33.77
32.56
31.46
30.58
29.91
29.29
28.53
27.41
25.82
23.74
21.23
18.43
15.51
12.68
10.07
7.73
5.56
3.30
0.62
-2.73
-6.82
-11.39
-15.91
-19.71
-22.14
-22.73
-21.39
-18.32
-14.02
-9.08
-4.04
0.79
5.33
9.73
14.19
18.89
23.84
28.86
33.64
37.82
41.09
43.29
44.42
44.61
44.08
43.05
41.71
40.19
38.58
37.01
35.56
34.26
32.98
31.52
29.61
27.07
23.92
20.40
16.85
13.65
11.02
8.94
7.19
5.48
3.48
1.00
-2.02
-5.52
-9.39
-13.47
-17.60
-21.64
-25.40
-28.68
-31.20
-32.70
-32.97
-31.82
-29.18
-25.03
-19.38
-12.35
-4.16
4.74
13.74
22.13
29.33
35.07
39.47
42.98
46.07
48.99
51.54
53.17
53.23
51.31
47.44
42.09
35.90
29.48
23.18
17.17
11.56
6.55
2.43
-0.53
-2.25
-2.97
-3.17
-3.46
-4.31
-5.97
-8.39
-11.31
-14.29
-16.86
-18.57
-19.13
-18.40
-16.43
-13.41
-9.57
-5.09
-0.12
5.19
10.68
16.08
21.11
25.48
28.99
31.54
33.12
33.79
33.66
32.81
31.35
29.41
27.10
24.60
22.03
19.53
17.19
15.08
13.22
11.58
10.05
8.48
6.69
4.56
2.10
-0.54
-3.16
-5.60
-7.84
-10.04
-12.43
-15.14
-18.10
-21.00
-23.32
-24.59
-24.52
-23.12
-20.69
-17.65
-14.37
-11.09
-7.83
-4.51
-1.06
2.46
5.87
8.87
11.19
12.66
13.27
13.15
12.53
11.58
10.38
8.95
7.21
5.12
2.72
0.13
-2.46
-4.90
-7.06
-8.91
-10.51
-11.98
-13.46
-15.19
-17.33
-19.92
-22.64
-24.75
-25.28
-23.32
-18.43
-11.00
-2.18
6.44
13.30
17.40
18.56
17.35
14.80
12.00
9.77
8.51
8.23
8.78
9.94
11.54
13.44
15.42
17.18
18.39
18.97
19.20
19.73
21.23
24.04
27.96
32.35
36.57
40.37
43.99
47.92
52.32
56.64
59.72
60.28
57.54
51.58
43.27
33.66
23.56
13.28
2.79
-7.89
-18.50
-28.62
-37.89
-46.17
-53.51
-59.91
-65.06
-68.36
-69.05
-66.65
-61.12
-52.94
-42.89
-31.75
-20.06
-8.07
4.09
16.27
28.09
38.91
47.96
54.56
58.30
59.25
57.90
55.03
51.51
48.18
45.79
44.99
46.23
49.65
54.84
60.69
65.36
66.65
62.54
51.89
34.95
13.51
-9.42
-30.47
-46.76
-56.74
-60.37
-58.84
-53.79
-46.48
-37.30
-25.76
-11.01
7.45
29.19
52.80
76.28
97.72
115.88
130.33
141.18
148.63
152.62
152.90
149.39
142.48
132.99
121.82
109.37
95.18
78.06
56.72
30.48
-0.17
-33.56
-67.41
-99.45
-128.03
-152.29
-171.95
-186.97
-197.35
-203.09
-204.35
-201.65
-195.88
-188.12
-179.37
-170.26
-161.03
-151.72
-142.38
-133.30
-125.00
-117.92
-112.23
-107.61
-103.33
-98.50
-92.40
-84.74
-75.69
-65.78
-55.64
-45.75
-36.39
-27.58
-19.22
-11.16
-3.35
4.13
11.07
17.19
22.19
25.88
28.23
29.39
29.64
29.31
28.66
27.87
27.03
26.11
25.10
23.97
22.68
21.24
19.66
17.94
16.13
14.25
12.36
10.59
9.05
7.89
7.18
6.89
6.87
6.85
6.56
5.77
4.35
2.33
-0.17
-2.93
-5.58
-7.62
-8.48
-7.62
-4.83
-0.32
5.24
10.88
15.70
19.12
21.06
21.87
22.08
22.09
22.03
21.80
21.25
20.34
19.26
18.37
18.00
18.30
19.18
20.32
21.31
21.77
21.51
20.49
18.84
16.73
14.27
11.52
8.53
5.33
2.03
-1.16
-4.05
-6.50
-8.45
-9.95
-11.10
-12.03
-12.84
-13.64
-14.48
-15.47
-16.69
-18.20
-19.98
-21.92
-23.78
-25.17
-25.70
-25.02
-23.00
-19.77
-15.72
-11.34
-7.10
-3.25
0.19
3.36
6.41
9.38
12.18
14.64
16.59
17.98
18.86
19.34
19.50
19.36
18.91
18.13
17.07
15.80
14.46
13.14
11.89
10.68
9.43
8.04
6.44
4.61
2.58
0.43
-1.74
-3.86
-5.93
-8.02
-10.25
-12.72
-15.47
-18.44
-21.50
-24.49
-27.30
-29.84
-32.02
-33.71
-34.68
-34.65
-33.39
-30.81
-27.04
-22.46
-17.64
-13.13
-9.33
-6.35
-3.94
-1.63
1.13
4.73
9.28
14.51
19.89
24.74
28.42
30.50
30.90
29.89
28.08
26.13
24.49
23.24
22.04
20.29
17.48
13.35
8.05
2.29
-2.66
-5.08
-3.39
3.17
13.71
25.58
35.06
38.70
34.66
23.37
7.09
-11.28
-29.44
-46.19
-61.16
-73.99
-83.81
-89.28
-89.26
-83.46
-72.74
-58.88
-43.93
-29.69
-17.33
-7.38
0.19
5.67
9.48
12.03
13.64
14.62
15.24
15.80
16.56
17.66
19.06
20.52
21.70
22.29
22.14
21.29
19.97
18.46
17.02
15.83
14.95
14.35
13.96
13.63
13.21
12.47
11.21
9.18
6.20
2.29
-2.27
-6.87
-10.81
-13.51
-14.82
-15.08
-14.94
-14.99
-15.37
-15.68
-15.09
-12.69
-7.85
-0.53
8.72
18.88
28.73
37.14
43.36
47.16
48.76
48.68
47.46
45.44
42.76
39.48
35.74
31.84
28.18
24.99
22.31
19.94
17.63
15.30
13.09
11.28
10.05
9.40
9.07
8.69
7.98
6.87
5.47
3.97
2.52
1.15
-0.18
-1.52
-2.91
-4.40
-6.08
-8.09
-10.61
-13.75
-17.39
-21.16
-24.51
-26.85
-27.74
-27.10
-25.21
-22.58
-19.76
-17.10
-14.63
-12.13
-9.33
-6.15
-2.79
0.38
3.05
5.16
6.94
8.73
10.78
13.07
15.31
17.09
18.19
18.60
18.56
18.39
18.31
18.34
18.33
18.09
17.53
16.69
15.69
14.65
13.59
12.40
10.94
9.13
7.06
4.91
2.95
1.32
0.01
-1.13
-2.36
-3.88
-5.78
-7.95
-10.13
-11.92
-12.89
-12.78
-11.55
-9.49
-7.09
-4.82
-2.93
-1.38
0.12
1.83
3.87
6.01
7.87
9.10
9.55
9.39
8.98
8.73
8.87
9.37
9.99
10.40
10.33
9.72
8.65
7.33
5.93
4.55
3.19
1.80
0.41
-0.84
-1.75
-2.14
-1.94
-1.30
-0.54
-0.02
-0.07
-0.83
-2.27
-4.18
-6.34
-8.54
-10.62
-12.50
-14.05
-15.07
-15.32
-14.57
-12.74
-9.97
-6.64
-3.26
-0.25
2.20
4.17
5.93
7.76
9.78
11.91
14.00
15.94
17.72
19.47
21.33
23.35
25.37
27.13
28.36
28.91
28.84
28.37
27.80
27.36
27.11
26.90
26.45
25.51
23.94
21.74
18.89
15.22
10.38
4.04
-3.84
-12.67
-21.28
-28.24
-32.49
-33.84
-33.07
-31.60
-30.77
-31.24
-32.76
-34.39
-35.09
-34.24
-31.88
-28.57
-24.96
-21.53
-18.37
-15.30
-12.02
-8.34
-4.25
0.12
4.50
8.51
11.78
14.02
15.14
15.34
15.03
14.74
14.94
15.82
17.28
18.97
20.47
21.39
21.55
21.03
20.19
19.67
20.19
22.35
26.40
32.02
38.33
44.07
48.12
49.98
50.23
50.48
52.79
58.71
68.29
79.58
88.90
91.92
85.30
67.98
41.97
11.91
-16.17
-36.57
-45.52
-42.08
-28.08
-7.32
15.74
37.14
54.26
65.87
71.96
73.31
71.26
67.60
64.53
64.17
67.79
75.03
83.54
89.68
90.12
83.66
72.16
60.02
52.21
51.74
58.02
66.84
72.11
68.35
52.89
26.71
-6.22
-40.50
-71.03
-94.24
-108.44
-113.53
-110.35
-100.20
-84.63
-65.46
-44.84
-25.08
-8.23
4.61
13.62
20.19
26.14
32.68
39.71
45.63
48.06
44.88
35.15
19.33
-0.99
-23.81
-47.30
-70.04
-90.89
-108.69
-122.25
-130.55
-133.15
-130.51
-123.81
-114.54
-103.93
-92.60
-80.65
-68.09
-55.29
-43.16
-32.96
-25.79
-22.15
-21.84
-24.02
-27.70
-32.00
-36.34
-40.43
-44.07
-47.05
-49.16
-50.18
-50.08
-49.00
-47.31
-45.46
-43.88
-42.88
-42.56
-42.81
-43.32
-43.71
-43.58
-42.61
-40.63
-37.73
-34.20
-30.44
-26.82
-23.50
-20.40
-17.31
-14.01
-10.46
-6.88
-3.61
-0.99
0.89
2.14
3.07
3.95
4.93
6.02
7.11
8.16
9.20
10.32
11.59
12.99
14.43
15.69
16.59
16.96
16.72
15.88
14.53
12.87
11.19
9.75
8.77
8.29
8.14
8.00
7.42
6.04
3.64
0.25
-3.82
-8.07
-11.95
-15.00
-16.98
-17.93
-18.14
-18.02
-17.90
-18.01
-18.35
-18.83
-19.29
-19.55
-19.39
-18.61
-17.03
-14.54
-11.17
-7.06
-2.47
2.31
6.99
11.35
15.24
18.53
21.19
23.26
24.82
25.97
26.71
26.99
26.64
25.52
23.55
20.77
17.33
13.49
9.56
5.86
2.75
0.53
-0.51
-0.16
1.73
5.21
10.20
16.52
23.90
32.00
40.36
48.37
55.22
60.02
62.01
60.80
56.65
50.45
43.47
37.00
32.00
28.99
28.13
29.35
32.44
36.83
41.44
44.66
44.68
40.10
30.51
16.73
0.64
-15.43
-29.42
-39.96
-46.63
-49.71
-49.96
-48.35
-45.87
-43.43
-41.68
-40.95
-41.12
-41.72
-42.05
-41.49
-39.65
-36.52
-32.41
-27.89
-23.66
-20.50
-19.11
-19.94
-23.00
-27.74
-33.16
-38.15
-41.89
-44.19
-45.41
-46.20
-46.93
-47.49
-47.26
-45.51
-41.80
-36.23
-29.34
-21.81
-14.13
-6.44
1.28
9.01
16.44
23.03
28.15
31.38
32.63
32.16
30.46
27.99
25.13
22.16
19.29
16.76
14.76
13.37
12.51
11.83
10.83
8.98
5.87
1.41
-4.11
-10.06
-15.68
-20.32
-23.74
-26.16
-28.22
-30.59
-33.64
-37.16
-40.49
-42.87
-43.94
-44.05
-44.26
-45.78
-49.39
-54.89
-60.97
-65.66
-67.22
-64.93
-59.50
-52.85
-47.30
-44.50
-44.88
-47.47
-50.46
-51.90
-50.04
-43.61
-31.90
-15.24
4.35
23.01
35.93
39.46
33.32
21.77
12.41
13.16
28.72
58.64
97.94
139.96
179.53
214.61
245.73
273.68
297.27
312.69
314.74
299.17
264.99
215.33
156.64
96.90
43.17
-0.03
-31.40
-52.27
-65.30
-73.13
-77.50
-79.26
-78.82
-76.78
-74.11
-71.81
-70.38
-69.46
-67.87
-64.14
-57.15
-46.60
-33.15
-18.21
-3.62
8.79
17.64
22.35
23.46
22.52
21.60
22.35
25.05
28.18
28.91
24.34
12.95
-4.43
-24.67
-43.32
-55.94
-59.27
-51.79
-33.81
-7.37
24.02
55.65
82.25
98.99
102.72
92.80
71.37
42.80
12.47
-14.50
-34.37
-45.50
-48.40
-45.38
-39.64
-34.18
-30.97
-30.48
-31.91
-33.86
-35.12
-35.08
-33.78
-31.57
-28.79
-25.70
-22.48
-19.43
-16.95
-15.44
-15.04
-15.46
-16.09
-16.21
-15.32
-13.41
-10.93
-8.51
-6.73
-5.76
-5.41
-5.31
-5.14
-4.82
-4.51
-4.45
-4.83
-5.69
-7.01
-8.75
-10.85
-13.20
-15.49
-17.25
-18.07
-17.86
-17.05
-16.49
-17.10
-19.38
-23.11
-27.41
-31.10
-33.23
-33.48
-32.21
-30.16
-28.07
-26.25
-24.54
-22.47
-19.60
-15.90
-11.72
-7.65
-4.13
-1.16
1.70
5.14
9.63
15.06
20.61
24.96
26.76
25.23
20.63
14.35
8.56
5.43
6.45
11.95
21.19
32.73
44.93
56.24
65.42
71.69
74.84
75.24
73.59
70.39
65.33
57.15
44.09
24.96
0.28
-27.40
-54.08
-75.91
-90.77
-99.16
-103.95
-109.09
-117.90
-131.69
-149.11
-166.54
-179.37
-183.59
-177.38
-161.93
-141.31
-121.42
-108.09
-105.03
-112.29
-125.73
-138.04
-140.79
-127.14
-94.24
-44.58
14.51
72.88
120.71
151.54
164.03
161.92
152.04
141.60
135.57
135.44
139.50
144.25
146.20
143.11
134.32
120.38
102.43
81.90
60.42
39.84
21.97
8.10
-1.59
-8.33
-14.46
-22.50
-33.95
-48.33
-63.10
-74.51
-79.14
-75.56
-65.19
-51.86
-40.34
-34.41
-35.45
-42.04
-50.83
-58.07
-61.08
-59.04
-52.79
-44.16
-35.06
-26.97
-20.83
-17.07
-15.78
-16.67
-19.10
-21.99
-24.09
-24.20
-21.59
-16.16
-8.52
0.11
8.19
14.18
16.90
15.77
10.99
3.46
-5.53
-14.55
-22.43
-28.38
-32.09
-33.68
-33.51
-32.07
-29.63
-26.11
-20.92
-13.14
-1.93
12.98
31.03
51.01
71.46
91.28
109.79
126.41
140.12
149.10
151.06
144.19
128.26
105.30
79.36
55.30
37.31
27.56
25.83
29.87
36.51
42.79
46.66
47.26
44.60
39.15
31.55
22.54
13.07
4.25
-2.74
-7.03
-8.53
-8.13
-7.57
-8.87
-13.56
-22.00
-33.08
-44.59
-53.92
-59.08
-59.39
-55.70
-49.95
-44.36
-40.51
-38.80
-38.51
-38.23
-36.66
-33.18
-28.01
-21.98
-16.09
-11.01
-6.88
-3.46
-0.41
2.35
4.47
5.25
4.05
0.69
-4.30
-9.72
-14.20
-16.74
-17.28
-16.70
-16.35
-17.32
-19.77
-22.80
-24.90
-24.78
-22.16
-18.01
-14.11
-12.30
-13.67
-18.09
-24.45
-31.12
-36.54
-39.68
-40.13
-38.11
-34.29
-29.61
-25.03
-21.31
-18.76
-17.15
-15.84
-14.08
-11.37
-7.67
-3.30
1.27
5.71
9.95
14.04
17.91
21.25
23.50
24.19
23.17
20.72
17.47
14.02
10.78
7.78
4.88
1.95
-0.97
-3.69
-5.89
-7.27
-7.50
-6.36
-3.76
0.10
4.68
9.16
12.70
14.78
15.40
15.05
14.41
13.94
13.69
13.18
11.71
8.52
3.14
-4.57
-14.38
-25.73
-37.73
-49.19
-58.69
-64.90
-66.97
-64.84
-59.34
-51.94
-44.16
-37.06
-30.90
-25.39
-20.15
-15.15
-10.83
-7.86
-6.69
-7.20
-8.79
-10.91
-13.40
-16.72
-21.41
-27.32
-32.99
-35.86
-33.09
-22.66
-4.05
21.61
51.76
82.63
109.34
126.54
129.66
116.86
90.62
57.75
27.36
7.30
0.94
5.89
15.69
23.15
23.72
16.93
5.59
-6.52
-16.73
-24.24
-29.65
-33.72
-36.53
-37.32
-35.21
-29.93
-22.29
-14.01
-7.06
-2.83
-1.66
-2.79
-4.77
-6.18
-6.21
-4.93
-3.11
-1.73
-1.47
-2.41
-3.96
-5.24
-5.46
-4.39
-2.49
-0.76
-0.25
-1.55
-4.52
-8.25
-11.55
-13.48
-13.75
-12.74
-11.32
-10.33
-10.27
-11.27
-13.14
-15.60
-18.40
-21.29
-23.95
-25.89
-26.64
-25.81
-23.31
-19.36
-14.40
-8.90
-3.19
2.55
8.29
14.07
19.96
26.14
32.87
40.51
49.23
58.79
68.32
76.41
81.66
83.37
82.40
81.34
84.06
94.30
113.85
141.33
172.20
200.31
220.39
230.00
230.09
223.69
213.66
200.89
183.84
159.85
127.03
85.49
37.19
-14.94
-67.73
-117.49
-159.30
-186.84
-194.01
-177.75
-140.52
-90.75
-40.28
0.20
25.36
36.93
41.73
47.23
57.00
68.78
75.96
71.68
52.86
22.00
-14.13
-47.92
-74.30
-92.41
-104.52
-113.59
-120.92
-125.57
-125.62
-120.10
-110.36
-99.74
-91.88
-88.83
-90.05
-92.71
-93.28
-89.17
-79.88
-67.09
-53.80
-43.01
-36.49
-34.25
-34.69
-35.55
-34.91
-31.93
-27.10
-21.75
-17.26
-14.41
-12.93
-11.77
-9.62
-5.51
0.71
8.33
15.98
22.10
25.30
24.69
20.03
11.74
0.78
-11.61
-24.23
-36.20
-47.18
-57.24
-66.63
-75.40
-83.23
-89.44
-93.34
-94.64
-93.71
-91.53
-89.22
-87.43
-85.91
-83.62
-79.43
-72.99
-65.43
-59.17
-57.08
-61.14
-71.25
-84.89
-97.71
-104.78
-101.86
-86.41
-58.04
-18.71
27.39
74.18
114.71
142.77
154.84
151.46
137.23
119.19
104.19
96.31
95.75
99.48
103.31
104.13
101.10
95.41
88.89
82.64
76.47
69.38
60.68
50.83
41.54
34.93
32.36
33.67
37.17
40.46
41.60
39.89
36.03
31.58
28.09
26.38
26.25
26.80
26.97
26.18
24.50
22.51
20.76
19.34
17.83
15.67
12.73
9.56
7.23
6.71
8.25
11.16
14.05
15.42
14.20
9.88
2.52
-7.44
-19.17
-31.38
-42.32
-49.98
-52.73
-49.87
-41.99
-30.92
-19.29
-10.01
-5.72
-8.40
-18.98
-37.13
-61.03
-87.39
-111.78
-129.29
-135.63
-128.33
-107.57
-76.21
-38.98
-1.04
33.54
62.35
84.48
99.73
107.85
108.58
102.17
90.08
75.07
60.53
49.10
41.69
37.26
33.72
29.23
23.13
16.09
9.58
4.94
2.70
2.39
2.79
2.82
2.22
1.54
1.82
3.88
7.81
12.55
16.40
17.25
13.94
6.90
-2.19
-10.94
-17.10
-19.03
-16.30
-9.57
-1.33
5.28
7.01
0.93
-14.69
-39.40
-69.92
-100.95
-126.71
-143.70
-150.61
-147.81
-136.35
-116.72
-88.84
-52.84
-10.63
39.67
94.99
149.73
198.01
235.76
261.52
273.94
274.46
264.30
244.85
216.84
181.00
138.98
91.18
37.21
-23.10
-88.17
-154.21
-215.35
-265.87
-301.39
-320.41
-324.74
-318.64
-306.92
-293.24
-279.51
-265.38
-248.70
-225.35
-190.36
-140.13
-74.91
-0.40
73.06
133.48
172.22
187.38
184.47
173.14
161.80
153.69
146.52
135.42
117.14
92.55
65.97
42.37
24.23
10.47
-1.89
-14.79
-27.12
-35.02
-33.97
-21.42
2.12
33.94
70.72
109.58
147.66
180.98
203.82
209.57
193.09
153.45
95.30
28.18
-36.20
-87.52
-119.94
-133.29
-132.23
-123.88
-114.88
-109.41
-108.55
-111.23
-115.82
-121.48
-128.14
-135.54
-141.88
-143.63
-136.69
-118.49
-89.83
-55.22
-21.37
5.30
21.16
26.41
24.53
20.38
17.93
18.83
22.11
25.44
26.83
25.99
24.73
26.07
32.50
44.28
58.87
71.79
78.79
78.11
71.37
62.69
56.39
54.69
56.92
60.46
62.85
63.48
63.69
65.31
68.83
72.55
73.37
68.79
58.61
45.26
32.49
23.36
18.70
17.03
15.75
12.77
7.51
0.97
-5.25
-10.03
-13.33
-16.06
-19.30
-23.61
-28.66
-33.47
-36.98
-38.66
-38.65
-37.70
-36.71
-36.38
-36.96
-38.30
-39.97
-41.41
-42.13
-41.73
-40.05
-37.11
-33.09
-28.15
-22.50
-16.32
-9.88
-3.59
2.08
6.70
10.09
12.35
13.96
15.46
17.38
19.94
23.02
26.18
28.83
30.41
30.68
29.82
28.39
27.14
26.62
26.97
27.88
28.70
28.77
27.68
25.43
22.33
18.91
15.68
12.90
10.53
8.21
5.49
2.02
-2.22
-6.90
-11.47
-15.51
-18.92
-22.01
-25.25
-28.93
-32.95
-36.84
-39.97
-41.93
-42.72
-42.70
-42.42
-42.45
-43.36
-45.72
-49.97
-55.94
-62.47
-67.36
-68.23
-63.91
-55.59
-46.89
-42.52
-46.10
-58.23
-75.96
-93.96
-106.81
-110.99
-105.62
-91.94
-72.04
-48.01
-21.76
4.72
29.39
50.71
68.40
83.66
98.48
114.31
131.04
146.82
159.19
166.54
169.09
168.63
167.22
165.88
164.13
160.67
154.65
146.45
137.67
129.97
124.02
119.03
113.24
105.23
94.73
82.96
71.89
63.14
57.16
53.11
49.45
44.79
38.48
30.66
21.93
12.85
3.77
-5.15
-13.68
-21.45
-28.06
-33.37
-37.66
-41.54
-45.65
-50.27
-55.22
-59.96
-63.91
-66.83
-68.90
-70.60
-72.46
-74.91
-78.16
-82.21
-86.95
-92.07
-97.01
-100.93
-102.72
-101.27
-95.75
-85.91
-72.16
-55.61
-37.79
-20.37
-4.83
7.79
17.05
22.99
25.92
26.18
23.93
19.21
12.03
2.46
-9.26
-22.64
-36.79
-50.23
-60.82
-66.12
-64.12
-54.23
-38.02
-19.02
-1.58
10.80
17.03
18.80
19.78
23.97
33.91
49.73
69.22
88.83
104.96
114.99
117.81
113.63
103.50
88.72
70.48
49.90
28.26
7.18
-11.33
-25.28
-33.25
-35.02
-31.74
-25.51
-18.61
-12.63
-7.81
-3.23
2.61
10.78
21.43
33.80
46.79
59.65
72.13
83.99
94.55
102.93
109.09
115.06
124.76
142.41
169.77
204.14
238.71
265.17
277.36
273.75
257.29
233.11
205.51
176.30
144.96
110.36
72.47
33.04
-4.95
-38.57
-66.17
-88.06
-106.45
-124.58
-145.39
-170.00
-196.94
-222.59
-242.69
-254.27
-256.90
-252.58
-244.33
-234.43
-223.48
-210.66
-194.77
-175.69
-154.86
-134.78
-118.11
-106.52
-100.16
-97.62
-96.44
-93.84
-87.69
-77.28
-63.69
-49.56
-37.97
-31.23
-29.75
-31.95
-35.05
-36.46
-34.89
-30.88
-26.43
-24.03
-25.82
-32.74
-44.16
-57.81
-70.28
-78.10
-79.11
-73.67
-64.65
-56.36
-52.78
-55.60
-63.32
-71.74
-75.24
-68.37
-47.01
-9.31
43.38
105.67
168.07
218.69
246.64
246.09
218.99
174.37
124.72
80.66
47.21
23.23
4.08
-14.41
-33.48
-51.47
-65.47
-73.21
-73.80
-67.34
-54.43
-36.25
-15.16
5.33
21.03
28.66
27.20
17.93
3.65
-12.78
-29.23
-44.23
-56.42
-64.18
-66.37
-63.35
-57.70
-53.71
-55.56
-65.15
-80.67
-96.75
-106.50
-104.50
-89.38
-64.61
-37.12
-14.48
-1.76
0.20
-5.41
-13.23
-18.16
-17.15
-9.87
1.79
14.44
24.32
28.23
24.37
13.01
-3.37
-20.70
-34.66
-42.17
-42.37
-36.68
-28.22
-20.40
-15.85
-15.81
-20.13
-27.77
-37.41
-47.98
-58.84
-69.59
-79.60
-87.82
-92.93
-93.93
-90.88
-85.17
-79.11
-74.83
-73.41
-74.54
-77.00
-79.48
-81.11
-81.23
-78.76
-71.86
-58.42
-37.23
-9.21
22.44
53.20
79.13
98.59
112.71
124.42
136.65
150.73
166.02
180.64
192.86
202.06
208.64
213.26
215.82
215.10
209.37
197.60
180.41
160.17
140.18
123.24
110.58
101.52
94.28
87.07
79.06
70.58
62.65
56.18
51.37
47.72
44.52
41.32
38.18
35.44
33.36
31.87
30.71
29.66
28.83
28.53
29.07
30.34
31.82
32.81
32.80
31.74
30.03
28.23
26.63
25.13
23.25
20.40
16.24
10.85
4.69
-1.60
-7.48
-12.70
-17.37
-21.80
-26.36
-31.30
-36.72
-42.50
-48.39
-53.99
-58.93
-62.95
-66.09
-68.66
-71.16
-73.92
-76.88
-79.54
-81.18
-81.18
-79.27
-75.64
-70.65
-64.58
-57.56
-49.64
-41.02
-32.24
-24.05
-17.16
-11.90
-8.12
-5.33
-2.99
-0.80
1.24
2.87
3.82
4.01
3.55
2.71
1.69
0.54
-0.83
-2.62
-4.93
-7.72
-10.83
-14.10
-17.51
-21.19
-25.37
-30.12
-35.21
-40.10
-44.03
-46.36
-46.77
-45.34
-42.47
-38.66
-34.28
-29.40
-23.90
-17.53
-10.15
-1.82
7.22
16.69
26.35
36.10
45.87
55.58
65.02
73.93
82.09
89.45
96.12
102.24
107.87
112.79
116.58
118.80
119.17
117.69
114.66
110.49
105.59
100.22
94.56
88.67
82.64
76.58
70.64
64.88
59.29
53.77
48.18
42.40
36.41
30.27
24.01
17.60
10.86
3.52
-4.69
-13.97
-24.39
-35.97
-48.72
-62.52
-76.94
-91.02
-103.16
-111.45
-114.19
-110.61
-101.24
-87.86
-72.93
-58.77
-46.97
-38.17
-32.23
-28.73
-27.26
-27.71
-30.22
-34.92
-41.70
-49.98
-58.67
-66.43
-72.03
-74.78
-74.87
-73.19
-70.97
-69.31
-68.73
-69.10
-69.80
-69.92
-68.57
-65.01
-58.81
-49.92
-38.82
-26.47
-14.08
-2.76
6.88
14.73
21.14
26.64
31.71
36.83
42.58
49.64
58.66
69.85
82.63
95.61
107.09
115.75
121.39
125.01
128.29
132.54
137.81
142.55
144.22
140.54
130.69
116.01
99.62
85.25
75.66
71.67
71.95
73.79
74.31
71.61
65.30
56.33
46.35
36.95
28.96
22.07
14.83
4.98
-9.72
-30.52
-56.99
-86.73
-116.15
-141.78
-161.74
-176.48
-188.62
-201.68
-218.27
-238.63
-259.99
-277.24
-284.60
-277.73
-255.44
-220.34
-178.27
-136.61
-102.05
-78.78
-67.78
-67.26
-73.70
-83.15
-91.51
-94.60
-88.15
-68.82
-35.72
8.11
55.70
98.05
127.49
140.85
140.55
133.01
125.21
121.36
121.58
123.22
123.58
122.16
121.05
123.21
130.08
140.07
148.87
151.58
145.19
130.08
109.76
89.13
72.02
59.78
51.23
43.83
35.36
25.09
13.95
3.75
-4.04
-9.10
-12.37
-15.44
-19.67
-25.40
-31.88
-37.72
-41.58
-42.84
-41.77
-39.32
-36.56
-34.18
-32.27
-30.38
-27.88
-24.23
-19.26
-13.26
-6.81
-0.59
4.83
9.20
12.61
15.33
17.52
19.07
19.51
18.25
14.88
9.39
2.08
-6.66
-16.63
-27.79
-40.06
-52.80
-64.48
-72.77
-75.27
-70.50
-58.91
-43.03
-26.68
-13.56
-5.47
-1.52
1.47
7.26
18.22
34.01
51.75
67.40
77.65
80.92
77.38
68.07
54.14
36.76
17.70
-0.25
-13.71
-20.19
-19.79
-15.81
-13.52
-17.56
-29.37
-46.38
-63.40
-75.28
-79.09
-74.85
-64.54
-50.41
-34.01
-16.37
1.21
16.68
27.76
33.28
34.11
32.91
32.58
34.60
38.45
42.56
45.97
49.60
55.89
66.92
82.39
98.69
110.17
111.79
101.78
82.66
60.01
39.73
25.47
17.52
13.68
11.19
8.60
6.27
5.63
7.65
11.68
15.36
15.66
10.42
-0.58
-15.52
-31.38
-45.25
-55.51
-62.27
-67.07
-71.91
-78.37
-86.91
-96.77
-106.45
-114.38
-119.60
-122.09
-122.67
-122.63
-123.13
-124.67
-126.89
-128.59
-128.04
-123.54
-114.07
-99.73
-81.84
-62.65
-44.66
-29.74
-18.59
-10.79
-5.14
-0.17
5.43
12.86
23.15
37.11
54.81
75.14
95.62
112.95
124.08
127.26
122.73
112.48
99.45
86.53
75.81
68.26
63.82
61.67
60.35
58.03
52.84
43.24
28.49
8.92
-14.09
-38.25
-60.93
-79.54
-92.12
-97.87
-97.35
-92.41
-85.57
-79.15
-74.52
-71.51
-68.66
-63.98
-55.84
-43.81
-28.70
-12.25
3.78
18.21
30.88
42.58
54.51
67.62
81.87
95.98
107.63
114.23
113.99
106.73
94.03
78.58
62.98
48.80
36.02
23.47
9.76
-5.80
-22.77
-39.74
-55.09
-67.64
-77.11
-83.96
-89.19
-93.88
-98.97
-105.05
-112.25
-120.11
-127.64
-133.54
-136.74
-136.76
-133.88
-128.85
-122.38
-114.56
-104.89
-92.66
-77.71
-60.91
-44.04
-29.07
-17.25
-8.54
-1.67
5.25
13.69
24.07
35.54
46.31
54.47
58.59
58.23
53.87
46.72
38.39
30.81
26.05
26.00
31.71
42.63
56.06
67.65
72.79
68.54
55.30
37.01
19.85
9.61
9.06
16.63
27.15
34.46
34.58
27.71
18.08
11.55
12.58
22.07
37.37
54.34
69.98
84.06
98.75
116.67
138.52
162.00
182.45
194.92
196.31
186.53
168.09
144.62
119.36
94.17
69.61
45.48
21.69
-1.34
-22.64
-41.12
-55.79
-65.99
-71.25
-71.41
-66.87
-58.97
-50.09
-43.09
-40.25
-42.06
-46.78
-50.97
-50.85
-43.81
-29.23
-8.51
15.70
40.36
62.57
79.75
89.75
91.24
84.18
70.13
51.95
33.01
16.22
3.43
-4.73
-8.56
-8.93
-7.14
-4.81
-3.78
-5.57
-10.87
-19.12
-28.63
-37.11
-42.63
-44.42
-43.17
-40.85
-39.84
-41.98
-47.71
-55.84
-63.96
-69.43
-70.54
-67.20
-61.09
-54.98
-51.74
-53.31
-60.10
-70.83
-82.80
-92.50
-96.44
-92.27
-79.70
-61.10
-41.02
-24.82
-16.65
-17.73
-25.76
-35.60
-41.37
-38.58
-25.78
-4.91
19.71
42.98
60.65
70.37
71.91
66.63
56.76
44.62
32.15
20.85
11.86
6.01
3.63
4.26
6.36
7.53
5.31
-1.93
-14.16
-29.61
-45.42
-58.76
-67.90
-72.69
-74.35
-74.70
-75.35
-77.22
-80.50
-85.00
-90.33
-95.99
-101.23
-104.95
-105.89
-103.08
-96.12
-85.38
-71.67
-55.97
-39.07
-21.65
-4.58
10.93
23.42
31.66
35.27
34.96
32.40
29.68
28.70
30.55
35.29
41.88
48.41
52.50
51.94
45.34
32.75
15.78
-2.85
-20.08
-33.60
-42.44
-47.10
-48.89
-49.24
-49.04
-48.76
-48.95
-50.66
-55.30
-63.47
-73.85
-82.23
-82.41
-68.15
-35.59
15.19
80.46
154.62
232.48
310.55
386.56
457.65
518.96
563.63
584.67
577.86
543.65
487.09
415.66
336.58
255.31
176.05
103.38
43.31
2.23
-15.98
-12.57
5.51
28.02
45.48
52.36
47.94
34.25
13.53
-14.02
-49.82
-95.30
-149.65
-208.10
-262.11
-301.40
-317.38
-306.57
-272.69
-225.67
-178.49
-142.68
-124.58
-124.15
-136.33
-153.56
-168.11
-173.39
-164.40
-138.53
-96.52
-43.22
12.77
61.35
94.00
106.32
98.93
76.38
44.72
9.13
-27.67
-65.74
-106.29
-149.29
-191.30
-224.86
-240.56
-231.17
-195.94
-142.43
-84.18
-34.94
-2.42
14.58
24.15
35.55
53.42
75.44
94.51
103.38
98.88
82.88
60.33
36.36
14.86
-0.82
-6.46
2.86
30.06
72.31
119.37
155.73
166.88
146.03
97.83
36.86
-18.46
-53.29
-61.63
-47.45
-21.92
1.73
12.99
7.39
-12.40
-37.93
-58.23
-64.22
-52.46
-26.70
3.73
27.78
36.98
28.27
