1652130258.00
64.000000
-0.00
-0.00
-0.00
-0.00
-0.00
-0.00
-0.00
-0.00
-0.00
-0.00
0.00
0.01
0.01
-0.00
-0.03
-0.05
-0.05
0.00
0.13
0.36
0.66
1.01
1.37
1.72
2.06
2.40
2.79
3.24
3.80
4.42
5.06
5.66
6.20
6.68
7.15
7.68
8.31
9.14
10.09
11.04
11.88
12.56
13.14
13.76
14.65
15.96
17.91
20.32
22.90
25.38
27.58
29.57
31.68
34.32
37.81
42.54
48.15
54.10
59.83
64.97
69.58
74.14
79.34
85.71
93.76
103.00
112.62
121.73
129.77
136.75
143.30
150.75
157.77
166.64
177.95
191.79
206.97
220.57
228.25
225.36
208.53
176.87
132.76
80.05
23.07
-34.94
-92.44
-149.16
-205.23
-260.37
-313.74
-363.87
-409.83
-450.90
-486.48
-515.70
-537.17
-549.14
-549.84
-538.21
-514.01
-478.43
-433.59
-382.10
-326.60
-269.34
-212.04
-155.99
-102.22
-51.63
-5.18
36.26
72.06
101.98
126.16
145.10
159.48
170.00
177.27
181.70
183.61
183.24
180.88
176.87
171.58
165.38
158.57
151.40
144.01
136.54
129.08
121.75
114.62
107.72
101.05
94.54
88.15
81.88
75.82
70.10
64.88
60.20
56.00
52.12
48.36
44.62
40.93
37.49
34.53
32.23
30.60
29.41
28.30
26.86
24.79
22.00
18.56
14.61
10.17
5.20
-0.41
-6.73
-13.68
-21.12
-29.15
-38.14
-48.59
-60.35
-71.95
-80.52
-82.76
-76.57
-62.28
-42.84
-22.49
-4.71
9.09
19.68
28.65
36.70
42.79
44.79
41.02
31.72
19.34
7.55
-0.44
-3.07
-0.58
5.78
14.59
24.85
35.49
44.67
49.39
46.10
32.34
8.67
-20.41
-47.48
-64.80
-67.50
-55.51
-33.49
-8.39
13.52
28.74
37.07
40.09
39.36
35.16
26.78
13.75
-2.85
-20.08
-33.92
-40.79
-39.05
-29.65
-15.84
-1.95
8.03
11.91
9.88
4.26
-1.41
-3.80
-0.97
6.81
17.22
26.86
32.71
33.36
29.41
23.12
17.26
14.11
14.94
19.76
27.67
37.38
47.46
56.46
62.95
65.52
62.83
54.01
39.08
19.52
-1.65
-20.73
-34.62
-41.99
-43.83
-42.69
-41.38
-41.79
-44.38
-48.50
-53.05
-57.24
-60.57
-62.75
-63.78
-63.76
-63.06
-62.23
-61.69
-61.52
-61.46
-61.10
-60.46
-59.90
-59.92
-60.49
-60.71
-58.86
-53.38
-43.58
-30.46
-16.63
-5.40
0.49
0.33
-3.92
-8.22
-8.14
-0.95
13.08
30.71
47.39
59.66
66.73
70.48
74.16
79.98
87.87
95.63
100.45
100.92
97.92
94.23
92.76
94.90
99.85
105.05
107.59
105.62
98.81
87.84
73.57
56.48
36.80
15.39
-5.81
-23.80
-35.44
-38.80
-33.97
-22.87
-8.09
8.41
25.81
43.62
60.19
71.72
73.06
60.03
32.24
-5.65
-45.13
-77.19
-95.86
-100.19
-93.57
-81.07
-66.64
-52.01
-37.47
-23.57
-12.21
-6.16
-7.27
-14.88
-25.67
-34.97
-39.12
-37.20
-31.20
-24.78
-21.21
-21.83
-25.57
-29.84
-31.88
-30.08
-24.32
-15.75
-6.04
3.17
10.12
12.71
8.46
-4.53
-26.02
-52.33
-76.80
-91.94
-92.77
-79.32
-56.67
-32.41
-13.04
-1.37
3.88
6.08
8.26
11.58
15.46
18.90
21.70
24.75
29.50
37.05
47.54
60.01
72.62
82.89
88.38
87.50
80.39
69.32
58.09
50.52
48.69
51.88
56.75
59.04
55.50
45.59
31.79
18.56
10.49
10.69
19.81
36.03
55.62
73.77
85.34
85.91
72.82
46.33
9.85
-30.51
-67.83
-96.47
-113.63
-119.45
-115.94
-105.48
-89.90
-70.77
-50.02
-30.57
-15.99
-9.38
-12.00
-22.51
-37.31
-51.80
-62.02
-65.97
-64.08
-58.68
-52.82
-48.95
-47.95
-49.15
-50.96
-51.92
-51.56
-50.64
-50.49
-52.12
-55.61
-59.93
-63.71
-65.86
-66.25
-65.74
-65.62
-66.89
-69.59
-72.94
-75.52
-76.01
-73.52
-67.78
-58.93
-47.37
-33.82
-19.46
-6.15
4.08
9.74
10.87
9.26
7.69
8.53
12.21
16.52
17.40
11.02
-3.96
-25.07
-46.58
-61.78
-65.75
-57.53
-40.20
-19.33
-0.45
13.11
20.93
24.76
26.69
27.79
27.75
25.85
22.30
19.08
19.40
26.12
40.10
59.31
79.50
95.88
105.10
106.33
101.08
92.05
81.82
72.16
64.12
58.60
56.76
59.67
67.35
78.15
88.70
94.89
93.55
83.63
66.66
46.08
25.95
9.79
-0.39
-4.24
-2.86
1.64
6.58
9.17
7.19
-0.17
-11.84
-24.76
-34.65
-37.36
-30.23
-13.18
11.13
38.02
62.18
79.29
87.13
85.85
77.51
65.03
51.46
39.49
31.44
29.18
33.68
44.37
58.90
73.50
84.28
89.08
88.51
85.88
85.49
90.46
100.89
113.58
123.40
125.26
115.81
94.43
63.38
27.39
-7.23
-34.05
-48.47
-49.52
-40.55
-28.20
-19.76
-19.91
-28.92
-42.93
-56.33
-64.83
-67.29
-65.54
-62.69
-61.08
-61.32
-62.65
-63.93
-64.37
-63.88
-62.68
-61.05
-58.98
-56.22
-52.37
-47.13
-40.58
-33.81
-29.13
-29.35
-36.25
-48.97
-63.65
-75.08
-79.41
-76.39
-69.48
-63.53
-61.54
-62.59
-62.51
-56.73
-43.57
-25.55
-8.15
3.30
6.40
2.66
-3.65
-8.02
-7.66
-2.50
5.42
13.21
18.55
20.68
20.49
19.91
20.89
24.40
29.85
35.18
37.82
35.83
29.08
19.61
11.17
7.82
12.21
24.54
42.42
61.93
79.16
91.29
96.43
93.00
79.11
53.62
18.11
-21.71
-56.58
-77.27
-79.24
-65.59
-46.33
-33.43
-34.50
-48.72
-67.37
-78.61
-73.69
-51.09
-16.27
21.80
55.16
79.69
94.82
101.40
99.82
89.89
71.93
48.77
26.00
10.34
6.40
13.99
27.40
37.93
37.63
23.26
-2.42
-32.24
-58.05
-74.25
-79.54
-76.46
-69.50
-62.99
-59.66
-60.34
-64.55
-71.12
-78.57
-85.35
-89.63
-89.69
-84.41
-73.69
-58.68
-41.72
-25.90
-14.08
-8.13
-8.18
-12.57
-18.40
-22.68
-23.39
-20.20
-14.31
-7.68
-2.01
1.89
4.25
5.81
7.26
8.66
9.55
9.33
7.73
5.06
2.10
-0.33
-1.73
-2.13
-2.02
-2.07
-2.71
-3.95
-5.42
-6.67
-7.62
-8.65
-10.56
-13.89
-18.56
-23.61
-27.44
-28.43
-25.68
-19.59
-11.77
-4.74
-0.86
-1.55
-6.77
-15.10
-24.18
-31.39
-34.43
-31.64
-22.61
-8.48
7.87
22.37
30.78
30.21
20.63
5.08
-11.17
-22.96
-27.20
-24.30
-17.49
-10.89
-7.15
-6.06
-5.10
-1.41
5.78
14.10
18.75
15.13
1.52
-19.65
-42.72
-61.82
-73.78
-79.52
-82.95
-88.34
-97.73
-109.68
-120.02
-123.70
-116.90
-98.27
-69.16
-33.29
4.52
39.47
68.17
89.29
103.78
113.75
121.16
126.32
127.17
119.84
99.99
64.72
14.26
-47.16
-111.78
-169.61
-211.01
-229.36
-222.92
-195.26
-153.66
-106.54
-60.58
-19.29
16.93
49.49
79.91
108.88
136.14
161.14
183.59
203.67
221.61
237.28
249.79
257.57
258.83
252.12
236.70
212.63
180.59
141.62
97.33
50.24
3.95
-37.06
-68.57
-88.20
-96.36
-96.36
-93.22
-91.44
-93.19
-97.60
-101.49
-101.28
-94.82
-82.45
-66.82
-51.76
-40.72
-35.55
-35.81
-38.97
-41.36
-39.73
-32.59
-20.73
-6.80
6.02
15.38
20.46
21.70
20.04
16.10
10.12
2.34
-6.17
-13.31
-16.53
-13.78
-4.55
9.50
24.94
37.54
43.63
41.35
31.17
15.36
-3.12
-21.96
-40.14
-57.61
-74.20
-88.66
-98.66
-101.82
-97.44
-87.37
-75.55
-66.01
-60.76
-58.71
-56.37
-50.01
-37.92
-21.35
-3.79
10.91
20.42
24.76
25.86
26.22
27.70
30.81
35.07
39.71
44.40
49.59
56.32
65.61
77.61
91.13
103.69
112.23
114.44
109.69
99.49
86.92
75.21
66.17
59.42
52.86
44.08
31.75
16.37
-0.08
-15.35
-27.91
-37.41
-44.27
-48.96
-51.44
-51.19
-47.74
-41.19
-32.51
-23.14
-14.40
-6.96
-0.85
4.28
8.80
12.84
16.55
20.40
25.29
32.28
41.90
53.36
64.49
72.44
74.90
71.09
62.15
50.36
38.12
27.15
18.46
12.59
9.94
10.41
12.60
13.35
8.28
-6.75
-33.47
-69.86
-110.33
-147.66
-175.60
-191.02
-194.68
-190.14
-181.76
-172.77
-164.37
-155.98
-146.43
-135.00
-121.79
-107.35
-91.82
-74.49
-54.08
-29.62
-1.30
29.11
58.84
85.36
107.31
124.83
139.14
151.55
162.41
170.82
175.14
173.86
166.63
154.67
140.43
126.61
115.03
105.93
98.04
89.36
78.31
64.34
47.95
30.07
11.31
-8.42
-29.50
-51.90
-74.57
-95.42
-112.15
-123.06
-127.67
-126.66
-121.10
-111.84
-99.09
-82.90
-63.73
-42.95
-22.63
-4.76
9.66
21.25
31.98
44.32
59.86
78.43
98.04
115.74
128.86
136.23
138.61
138.23
137.48
137.74
138.44
137.22
130.99
117.30
95.41
66.75
34.38
1.86
-27.82
-52.92
-72.96
-88.20
-99.08
-105.88
-108.92
-109.01
-107.93
-108.26
-112.56
-122.08
-135.72
-149.75
-158.80
-157.83
-144.22
-119.05
-86.95
-54.59
-28.10
-11.02
-3.26
-1.50
-0.87
3.11
13.15
29.62
50.89
74.31
97.10
116.94
132.25
142.20
146.47
145.11
138.32
126.40
109.65
88.58
63.74
35.89
5.92
-25.08
-55.78
-84.70
-110.31
-131.55
-147.89
-159.38
-166.33
-168.80
-166.33
-158.18
-144.11
-125.19
-103.98
-83.76
-67.42
-56.27
-49.62
-45.14
-39.94
-31.86
-20.40
-6.99
5.83
14.81
17.17
11.50
-1.51
-19.22
-37.96
-54.45
-67.11
-75.66
-81.42
-86.20
-91.04
-95.63
-98.27
-96.62
-88.68
-73.65
-50.73
-20.39
16.08
56.71
99.38
142.27
184.07
224.44
264.16
307.35
359.03
423.24
500.57
586.52
671.96
745.84
799.10
815.59
787.55
715.43
607.40
476.50
336.64
199.27
72.30
-39.33
-132.94
-205.99
-258.10
-291.28
-309.38
-316.89
-317.84
-315.01
-309.79
-302.98
-293.86
-282.06
-267.88
-252.30
-236.59
-221.84
-208.55
-196.66
-185.86
-175.10
-163.70
-151.53
-138.98
-126.68
-115.24
-104.95
-95.77
-87.53
-79.67
-71.80
-63.79
-55.78
-48.03
-40.84
-34.38
-28.65
-23.59
-18.95
-14.50
-10.09
-5.67
-1.26
3.03
7.11
10.89
14.31
17.41
20.22
22.83
25.29
27.64
29.80
31.66
33.10
34.01
34.36
34.16
33.47
32.28
30.47
27.80
23.95
18.69
12.02
4.24
-4.14
-12.40
-19.92
-26.38
-31.78
-36.45
-40.78
-44.95
-48.82
-51.95
-53.74
-53.83
-52.33
-50.01
-47.90
-47.11
-48.16
-50.95
-54.67
-58.31
-60.91
-61.99
-61.68
-60.66
-59.95
-60.85
-64.62
-71.76
-80.99
-88.66
-89.38
-77.78
-50.72
-8.92
43.03
97.33
145.19
179.02
193.96
188.80
165.76
129.60
86.32
42.34
3.33
-25.98
-41.48
-39.99
-20.05
17.28
68.17
126.65
186.65
242.45
289.35
323.65
342.20
342.79
325.18
292.11
246.59
196.36
149.18
109.94
79.41
55.08
33.27
11.19
-11.92
-35.16
-56.40
-74.54
-89.58
-102.32
-114.03
-126.57
-142.22
-163.22
-190.53
-221.88
-252.24
-273.57
-276.62
-254.08
-203.73
-130.08
-43.46
42.93
116.96
168.57
193.39
193.33
175.26
147.97
119.31
94.52
75.95
63.78
53.33
40.20
22.71
2.31
-18.15
-36.44
-51.71
-64.12
-74.27
-88.35
-111.30
-143.89
-182.14
-220.48
-254.99
-284.65
-310.55
-334.80
-366.69
-413.97
-479.27
-559.30
-647.70
-737.70
-822.32
-893.63
-900.39
-812.39
-635.88
-413.41
-195.91
-16.55
114.98
204.89
265.44
307.87
332.41
337.11
323.27
298.16
271.51
250.79
238.96
235.05
235.94
232.56
218.20
191.73
158.36
125.59
99.09
81.10
70.92
66.24
61.06
50.74
34.16
14.44
-3.97
-17.84
-26.11
-29.49
-29.67
-30.17
-33.70
-41.23
-51.11
-61.07
-69.35
-75.15
-78.39
-79.26
-78.34
-75.42
-73.38
-72.66
-73.07
-74.38
-76.53
-79.56
-83.49
-88.26
-93.66
-99.45
-104.73
-108.80
-111.14
-111.41
-109.47
-105.36
-99.28
-91.60
-82.82
-73.05
-62.56
-51.67
-40.72
-30.02
-19.83
-10.39
-1.87
5.53
11.97
17.48
22.11
25.87
28.81
31.00
32.58
33.74
34.66
35.61
36.79
38.25
39.93
41.72
43.50
45.17
46.67
47.98
49.05
49.73
49.76
48.79
46.57
43.04
38.48
33.45
28.76
25.15
23.18
23.06
24.71
27.88
32.44
38.51
46.45
56.71
69.57
84.85
101.87
119.68
137.32
154.21
170.34
186.19
202.50
220.06
239.50
261.19
285.00
310.03
334.31
355.06
369.32
374.95
371.43
360.10
343.53
324.41
304.51
284.35
263.53
241.57
218.56
195.29
172.91
152.27
133.42
115.67
97.94
79.40
60.00
40.69
23.05
8.69
-1.50
-7.76
-11.25
-13.46
-15.35
-16.96
-17.46
-15.97
-12.20
-6.89
-1.48
2.47
3.94
2.78
-0.38
-4.34
-7.65
-8.97
-7.36
-2.80
3.51
9.31
12.04
9.98
3.30
-5.82
-14.00
-18.26
-17.40
-12.52
-6.35
-1.88
-1.19
-4.94
-12.86
-24.21
-38.00
-52.55
-65.43
-73.44
-73.72
-64.87
-47.66
-24.47
1.86
29.21
56.39
82.25
104.92
121.49
128.88
125.33
111.77
92.18
72.88
61.01
62.03
78.60
109.40
149.28
190.25
223.60
242.48
243.82
229.50
203.28
170.66
136.42
104.44
77.01
55.08
38.35
25.48
15.66
5.16
-8.14
-25.60
-46.09
-68.06
-90.35
-112.66
-134.85
-154.15
-171.37
-185.41
-196.18
-201.95
-201.11
-191.87
-172.84
-143.65
-102.77
-55.99
-7.75
37.71
81.39
127.47
181.50
246.98
305.84
372.65
435.27
484.23
493.76
449.93
355.42
230.74
104.01
-3.14
-79.78
-131.49
-165.43
-187.65
-197.64
-195.07
-180.89
-159.36
-137.19
-118.51
-108.69
-107.57
-112.65
-119.64
-123.52
-122.68
-119.24
-117.65
-120.77
-131.69
-149.28
-170.37
-191.30
-209.02
-222.21
-231.79
-240.35
-249.92
-262.41
-277.11
-292.17
-307.11
-321.41
-334.85
-347.79
-361.57
-378.09
-400.07
-429.54
-467.04
-513.01
-563.08
-608.23
-637.65
-643.27
-623.11
-581.78
-528.23
-451.80
-353.33
-242.20
-132.50
-36.64
38.46
91.25
123.94
141.04
147.35
146.79
142.67
137.86
134.64
134.04
136.11
140.57
147.61
155.95
162.97
166.83
166.95
163.69
157.66
149.41
139.62
129.26
119.33
110.54
103.69
99.82
99.94
104.46
113.23
125.61
140.54
156.46
172.58
188.09
202.43
215.26
226.24
235.27
242.50
248.14
252.17
256.52
263.45
275.39
294.60
322.76
360.78
408.88
466.67
518.76
551.91
556.22
528.03
469.41
385.13
280.77
163.19
41.65
-72.78
-167.72
-235.18
-273.87
-288.78
-288.15
-279.68
-268.23
-255.99
-244.03
-231.95
-219.95
-208.47
-197.74
-187.51
-177.16
-165.89
-153.60
-141.14
-128.98
-117.78
-107.92
-99.30
-91.44
-83.65
-75.27
-66.13
-56.72
-47.50
-39.00
-31.53
-25.04
-19.14
-13.38
-7.34
-0.96
5.39
11.19
15.88
19.06
20.52
20.39
18.99
16.70
13.87
10.71
7.39
4.07
0.95
-1.70
-3.58
-4.50
-4.32
-3.03
-0.89
1.86
4.99
8.32
11.71
15.13
18.55
22.03
25.71
29.43
33.17
37.01
41.00
45.21
49.72
54.55
59.78
65.58
71.62
77.82
84.22
90.88
97.87
105.19
112.76
120.51
128.48
136.06
142.93
148.99
154.10
158.00
160.18
159.64
154.65
148.04
140.53
132.70
125.08
118.02
111.58
105.42
98.86
91.05
81.46
69.34
54.91
39.11
23.28
8.51
-4.64
-16.39
-27.43
-38.38
-49.93
-61.79
-73.01
-82.46
-89.59
-94.67
-98.94
-104.05
-111.51
-122.66
-137.91
-156.79
-177.67
-197.88
-213.84
-221.82
-219.13
-205.54
-184.01
-159.82
-138.58
-123.76
-115.24
-109.56
-102.01
-89.32
-71.61
-52.48
-37.09
-29.52
-30.52
-37.02
-43.79
-46.32
-43.36
-37.64
-34.11
-36.65
-45.42
-56.33
-63.66
-63.60
-56.49
-46.13
-36.47
-28.44
-19.47
-6.06
12.60
32.83
48.48
55.08
53.08
47.63
44.69
46.36
48.66
43.44
23.15
-14.39
-64.32
-116.88
-161.47
-190.73
-202.38
-198.93
-185.58
-168.04
-150.73
-135.97
-124.15
-114.43
-105.60
-96.96
-88.41
-80.18
-72.54
-65.61
-59.50
-54.63
-51.79
-51.86
-55.23
-61.17
-67.64
-71.91
-71.66
-66.28
-57.55
-49.20
-45.21
-47.78
-56.05
-66.39
-73.94
-74.98
-68.81
-57.86
-46.37
-38.14
-34.56
-33.80
-31.82
-24.27
-8.67
14.32
41.11
66.78
87.20
100.59
108.04
112.38
116.42
121.45
126.73
130.04
129.06
122.44
110.35
94.29
76.43
58.96
43.77
32.23
25.09
22.40
23.56
27.47
32.81
38.35
43.09
46.25
47.21
45.53
41.03
34.05
25.52
16.79
9.32
4.14
1.48
0.58
0.12
-1.34
-4.86
-10.64
-17.94
-25.33
-31.11
-33.99
-33.69
-31.14
-28.12
-26.59
-27.64
-30.76
-33.64
-32.87
-25.26
-9.20
14.23
41.16
65.82
82.29
86.56
78.13
60.25
38.65
19.40
6.54
0.86
0.34
1.84
3.03
3.57
4.83
8.44
14.92
22.99
30.17
34.25
34.47
31.79
28.09
25.00
22.96
21.38
19.16
15.60
10.85
5.68
0.99
-2.56
-4.60
-4.87
-3.19
0.30
4.81
8.86
10.66
9.23
5.17
0.86
-0.42
3.89
14.26
28.48
42.54
52.28
55.00
50.45
40.69
28.92
18.20
10.50
6.40
5.43
6.65
9.08
11.93
14.56
16.33
16.70
15.28
12.02
7.41
2.57
-1.02
-2.01
0.19
4.96
10.47
14.29
14.43
10.22
2.51
-6.97
-16.67
-26.05
-35.64
-46.12
-57.44
-68.32
-76.84
-81.53
-82.34
-80.64
-78.23
-76.11
-73.70
-69.25
-60.98
-48.23
-31.89
-13.94
3.63
19.65
33.88
46.69
58.56
69.65
79.84
89.04
97.30
104.74
111.46
117.27
121.80
124.70
126.04
126.50
127.13
129.09
133.04
139.02
146.31
153.71
159.90
163.63
163.61
158.34
146.26
126.08
97.63
62.48
24.02
-13.12
-44.22
-65.76
-76.43
-77.28
-71.40
-63.37
-57.69
-57.60
-64.32
-77.16
-93.65
-109.90
-121.29
-123.33
-113.21
-90.34
-56.84
-17.32
22.15
55.88
80.72
97.12
108.56
118.75
130.35
143.83
157.40
167.82
172.05
168.77
158.66
143.58
122.85
95.90
63.67
29.00
-4.77
-34.86
-59.51
-78.13
-91.36
-105.92
-126.97
-154.77
-184.94
-212.44
-234.30
-249.58
-258.52
-261.73
-268.11
-283.63
-307.18
-331.75
-350.73
-361.85
-366.42
-367.22
-366.82
-377.91
-409.05
-459.46
-520.74
-584.94
-649.12
-714.27
-782.71
-787.28
-693.63
-520.04
-322.61
-146.87
-6.12
107.18
204.88
293.88
374.36
431.67
454.92
445.61
416.91
383.82
355.78
335.68
322.34
313.43
299.19
273.97
239.98
205.05
176.00
155.01
140.75
131.03
124.54
115.36
100.97
83.20
66.73
55.24
49.32
47.36
47.30
47.67
45.26
38.27
27.48
15.13
3.18
-7.73
-17.86
-27.58
-37.03
-47.04
-58.08
-69.47
-80.23
-89.40
-96.41
-100.82
-102.06
-99.40
-91.65
-81.51
-70.15
-58.38
-46.53
-34.47
-21.68
-7.63
7.92
24.68
41.83
58.90
75.43
91.31
106.82
122.55
139.14
157.26
177.48
200.04
224.77
250.00
272.56
288.51
294.62
289.85
275.90
256.60
236.12
217.44
201.15
185.98
170.22
153.11
135.25
117.94
102.15
87.67
73.51
58.52
42.45
26.15
11.12
-1.27
-10.54
-17.18
-22.26
-26.80
-31.45
-36.54
-42.26
-48.92
-56.75
-65.71
-75.21
-84.13
-91.16
-95.22
-95.88
-93.39
-88.57
-82.30
-75.27
-67.52
-58.51
-47.38
-33.53
-17.16
0.55
17.52
31.51
40.71
44.37
42.80
37.12
28.75
19.07
9.22
0.23
-6.96
-11.58
-13.30
-12.50
-10.45
-9.00
-9.94
-14.34
-22.07
-31.72
-41.35
-49.16
-54.14
-56.37
-56.76
-56.63
-57.31
-59.81
-64.48
-70.80
-77.33
-81.91
-82.31
-77.10
-66.26
-51.32
-34.72
-18.88
-5.29
5.74
14.83
22.83
30.19
36.75
41.85
44.83
45.35
43.65
40.47
36.78
33.37
30.62
28.37
26.11
23.33
19.85
15.94
12.13
8.86
6.24
3.95
1.49
-1.49
-4.96
-8.64
-12.31
-16.12
-20.56
-26.06
-32.49
-38.76
-42.99
-43.18
-38.10
-27.85
-13.92
1.32
15.45
26.69
34.28
38.46
40.11
40.25
39.60
38.30
35.98
32.07
26.37
19.44
12.76
8.24
7.51
11.00
17.45
23.99
26.94
23.41
12.63
-3.13
-18.89
-28.42
-26.32
-9.51
22.22
66.52
119.06
173.84
223.44
260.09
278.09
276.40
259.97
238.16
220.82
213.66
215.91
221.40
222.38
213.98
196.35
173.54
150.43
130.03
112.86
98.24
86.03
76.78
71.37
69.90
70.79
71.01
67.36
57.91
43.02
25.03
6.11
-12.32
-30.23
-49.24
-72.60
-104.19
-146.54
-198.59
-254.42
-305.15
-340.08
-349.68
-329.18
-281.30
-216.27
-148.51
-91.95
-55.60
-43.59
-54.04
-80.30
-113.95
-147.59
-176.35
-197.83
-211.09
-204.29
-169.95
-109.64
-34.44
41.75
109.20
164.09
206.82
239.66
265.48
285.98
301.37
311.73
317.07
317.29
312.01
300.50
280.62
252.88
218.07
178.29
137.58
99.22
65.58
37.73
15.33
-5.25
-26.44
-49.58
-74.25
-97.68
-119.98
-142.71
-168.15
-199.23
-242.53
-301.93
-377.99
-467.54
-562.06
-655.01
-738.57
-803.61
-842.82
-857.91
-853.67
-836.20
-810.92
-778.59
-743.86
-710.20
-679.03
-616.67
-510.72
-371.71
-226.94
-122.82
-56.41
-16.71
5.43
21.12
34.12
40.73
39.09
31.35
23.18
23.94
35.56
56.90
85.83
119.26
150.47
175.09
192.24
204.03
215.88
228.28
240.39
251.71
261.71
267.89
268.98
265.25
258.31
251.49
244.99
238.70
233.11
229.15
227.29
228.86
235.62
248.67
267.74
288.43
303.89
307.11
293.14
260.89
214.30
161.23
110.96
71.40
46.26
35.16
34.86
40.95
49.47
57.55
63.51
66.67
67.35
67.01
68.13
73.64
86.10
106.43
133.02
161.74
186.81
202.39
204.48
192.49
169.92
143.76
122.63
114.05
121.86
144.69
176.04
206.42
226.46
229.89
215.00
184.38
142.97
95.96
47.09
-1.92
-51.12
-101.44
-153.67
-207.27
-259.62
-305.86
-339.72
-355.38
-349.73
-323.81
-282.68
-233.65
-183.59
-136.84
-94.72
-56.54
-20.92
13.01
45.69
77.38
108.47
139.08
168.55
195.06
216.08
229.26
233.17
227.94
215.30
198.40
181.40
168.58
163.40
167.25
178.84
194.34
208.46
215.90
212.78
197.47
170.88
136.21
98.22
62.00
31.35
7.58
-10.89
-27.63
-46.33
-68.77
-94.11
-119.58
-142.38
-161.48
-178.67
-197.87
-223.35
-257.21
-297.55
-338.14
-370.13
-385.32
-379.51
-354.48
-317.46
-278.33
-245.50
-223.04
-209.97
-202.20
-195.36
-187.06
-177.16
-166.54
-155.57
-143.04
-126.45
-103.19
-71.75
-31.91
15.52
69.61
128.84
190.14
248.01
294.74
322.20
324.58
300.93
256.01
199.74
142.95
93.84
56.13
29.59
11.98
0.80
-6.00
-10.26
-12.02
-11.86
-10.44
-7.68
-1.88
10.15
31.55
63.58
104.82
154.84
211.52
271.27
329.16
379.85
418.94
443.82
454.33
452.61
445.96
439.99
436.04
430.92
419.70
399.50
371.40
339.87
286.35
203.89
97.52
-16.65
-120.65
-203.47
-262.31
-299.36
-318.97
-326.14
-321.79
-307.41
-285.85
-261.16
-237.27
-216.49
-199.06
-184.16
-171.11
-156.65
-139.01
-118.75
-98.10
-79.69
-66.21
-58.84
-57.81
-63.01
-72.34
-84.22
-98.14
-112.81
-127.86
-142.71
-156.19
-167.07
-174.77
-178.52
-178.42
-175.64
-171.01
-165.93
-161.11
-156.53
-151.78
-146.88
-141.85
-136.95
-134.89
-133.53
-130.98
-124.92
-112.98
-93.48
-66.60
-34.22
2.33
37.82
69.22
94.96
115.32
131.28
144.10
153.48
157.52
153.67
139.68
115.25
81.14
39.60
-5.06
-46.57
-78.11
-93.24
-88.41
-65.84
-33.52
-4.05
10.46
2.82
-23.84
-60.00
-93.39
-113.83
-116.79
-103.32
-78.11
-44.33
-7.04
31.35
69.21
104.23
133.00
151.66
158.64
154.15
140.03
119.43
95.57
69.90
42.19
11.44
-23.08
-60.54
-98.52
-133.93
-162.86
-182.19
-190.21
-186.89
-173.49
-151.70
-122.97
-84.79
-41.20
3.90
46.42
83.61
113.70
135.80
150.17
158.22
161.10
158.86
153.03
141.31
122.23
95.29
61.04
21.12
-21.20
-63.27
-103.84
-141.75
-178.17
-212.95
-245.08
-272.79
-293.80
-304.03
-300.41
-281.32
-236.86
-170.13
-89.42
-5.54
69.88
126.49
163.35
182.21
185.98
179.85
167.74
153.41
139.10
124.16
97.88
57.97
6.99
-49.78
-105.48
-156.50
-201.45
-239.58
-270.78
-297.29
-315.14
-319.06
-307.29
-280.86
-244.30
-202.83
-158.45
-111.18
-65.72
-25.17
18.21
67.96
124.61
186.65
241.98
284.56
312.28
323.64
322.63
317.53
314.31
316.60
325.00
338.43
358.78
389.21
429.62
457.76
458.31
425.97
369.26
302.23
234.90
173.57
135.43
113.44
101.45
98.54
104.07
116.96
135.79
148.15
137.61
99.58
36.42
-40.13
-114.85
-177.35
-223.75
-255.26
-276.09
-288.88
-294.31
-295.28
-293.24
-288.29
-281.00
-272.67
-264.74
-258.79
-254.55
-249.96
-244.55
-237.29
-228.15
-215.93
-200.30
-181.06
-158.69
-133.24
-104.18
-72.30
-38.52
-3.94
30.30
59.86
83.26
100.16
111.29
118.07
121.49
122.40
121.28
118.47
114.05
108.60
102.48
95.96
89.42
83.01
76.80
70.78
64.98
59.30
54.05
49.39
45.21
41.38
37.66
34.10
30.72
27.58
24.70
22.33
20.50
19.18
18.23
17.43
16.89
16.74
17.05
17.84
19.12
20.63
21.98
23.55
24.04
23.16
20.92
17.60
13.60
9.29
4.83
0.34
-4.33
-9.20
-13.66
-16.91
-18.14
-16.76
-12.82
-7.10
-0.71
4.80
8.32
9.81
9.97
9.87
10.46
12.02
13.16
13.46
12.07
8.52
3.57
-1.02
-3.92
-3.63
1.05
10.97
26.33
45.53
65.27
80.94
87.55
82.23
65.90
43.52
22.13
9.29
7.20
13.69
24.48
34.78
41.96
45.42
46.37
46.16
45.19
42.62
37.72
31.13
24.28
19.39
17.29
18.18
21.08
23.64
22.29
12.65
-3.73
-25.38
-49.59
-75.24
-100.48
-123.46
-143.61
-161.86
-181.35
-204.89
-234.29
-268.38
-305.06
-337.34
-355.45
-351.09
-320.62
-268.36
-202.97
-134.79
-56.74
26.05
103.17
166.63
211.44
245.93
274.87
300.45
323.28
341.86
350.43
344.23
321.75
284.52
237.89
185.15
130.83
80.05
37.45
4.02
-19.76
-32.85
-35.76
-29.59
-22.06
-19.97
-26.50
-40.41
-59.58
-81.30
-102.45
-123.24
-144.94
-175.96
-222.63
-286.09
-361.17
-439.76
-513.10
-572.28
-613.14
-597.10
-506.69
-356.56
-187.59
-37.57
75.85
145.29
188.33
217.07
237.99
247.28
239.96
213.82
170.98
116.69
56.48
-4.31
-64.21
-121.35
-176.58
-212.70
-213.33
-174.07
-107.40
-33.84
30.56
76.67
104.08
114.83
112.85
100.61
80.65
56.10
31.13
10.90
-1.48
-4.69
-1.23
4.25
7.18
5.57
0.51
-4.88
-6.77
-2.59
9.32
29.28
56.29
87.24
118.14
142.95
155.26
151.45
133.55
110.22
93.85
90.91
105.66
138.32
183.56
233.54
281.34
323.22
357.50
381.86
391.69
366.71
300.04
204.10
104.74
24.95
-25.30
-48.73
-53.85
-51.63
-48.88
-47.57
-49.75
-59.37
-81.44
-117.47
-162.48
-205.76
-236.18
-245.39
-229.69
-192.68
-143.42
-92.84
-49.01
-15.28
9.06
25.15
35.07
43.00
53.02
67.07
82.81
94.67
96.72
86.17
63.02
31.35
-1.94
-27.37
-35.63
-25.08
-2.92
16.79
32.88
47.62
62.13
76.20
85.96
88.02
79.33
58.21
25.79
-14.32
-59.24
-105.41
-148.97
-185.18
-207.24
-211.36
-198.39
-171.41
-133.60
-88.54
-38.98
11.13
56.14
91.61
111.80
111.57
91.46
58.50
22.50
1.12
7.18
25.67
44.18
61.21
74.20
82.51
86.58
86.03
79.37
63.45
35.96
0.03
-39.71
-79.50
-115.81
-146.63
-172.37
-195.60
-221.27
-254.04
-293.69
-336.75
-377.43
-407.46
-418.74
-406.44
-371.06
-319.09
-260.00
-201.28
-147.63
-100.91
-60.46
-25.21
4.55
27.23
40.52
43.67
39.28
32.00
27.02
29.22
42.19
67.74
105.48
152.04
201.06
244.27
273.15
281.51
267.66
234.91
189.99
140.29
91.24
45.06
1.43
-40.69
-81.48
-119.74
-153.52
-181.33
-202.82
-218.65
-229.52
-235.31
-234.70
-225.62
-206.70
-178.66
-144.87
-110.76
-81.94
-62.00
-51.25
-46.67
-43.39
-36.78
-24.16
-5.12
19.22
47.36
77.87
109.02
138.25
162.41
179.28
189.10
195.09
201.91
212.66
226.70
239.80
247.02
246.19
239.88
234.04
234.23
242.10
254.13
263.58
264.20
253.32
232.62
206.73
180.91
159.18
143.31
132.90
125.99
119.61
110.63
96.55
76.07
49.13
16.53
-20.42
-59.98
-99.44
-134.72
-160.69
-172.23
-166.18
-142.64
-105.16
-59.57
-12.17
31.88
69.30
98.52
119.15
131.49
136.25
134.54
127.78
117.60
105.60
93.22
81.48
70.71
60.40
49.28
35.76
18.56
-2.45
-25.94
-49.49
-70.51
-87.16
-98.75
-105.69
-108.91
-109.53
-108.63
-107.29
-106.40
-106.47
-107.17
-107.39
-105.65
-101.01
-93.70
-85.17
-77.45
-72.15
-69.72
-69.46
-70.14
-70.95
-71.93
-73.85
-77.58
-83.49
-91.09
-99.29
-106.70
-112.00
-114.20
-112.61
-107.01
-97.71
-85.76
-72.78
-60.69
-51.17
-45.27
-43.24
-44.64
-48.67
-54.40
-60.85
-67.04
-71.92
-74.52
-74.18
-70.91
-65.61
-59.90
-55.73
-54.84
-58.25
-65.86
-76.28
-86.87
-94.28
-95.23
-87.57
-70.93
-46.83
-17.94
13.12
44.63
75.95
106.89
136.88
164.50
187.74
205.05
216.34
223.37
229.45
238.65
254.62
279.41
312.29
349.17
383.15
406.22
411.83
397.41
365.49
322.43
275.71
230.80
189.76
151.99
116.35
83.26
55.32
36.00
27.10
26.93
30.13
29.81
20.91
2.52
-21.61
-44.72
-59.73
-62.73
-54.77
-41.59
-31.11
-29.80
-40.92
-64.28
-96.57
-131.75
-162.35
-181.10
-183.04
-167.96
-140.64
-111.52
-93.90
-97.97
-124.37
-162.59
-195.44
-207.26
-192.16
-154.84
-109.77
-74.48
-60.78
-68.34
-85.75
-97.50
-92.16
-67.91
-28.82
16.83
60.60
89.54
93.86
74.33
42.59
18.16
0.88
-12.62
-22.89
-28.70
-25.97
-11.88
11.61
36.83
52.90
50.27
28.22
-6.95
-46.21
-82.70
-113.83
-140.52
-164.69
-186.17
-201.61
-203.45
-185.47
-146.57
-91.82
-29.41
33.03
90.01
137.32
170.38
185.60
181.20
159.70
128.00
96.14
73.72
65.48
69.04
76.99
82.84
84.95
87.41
94.99
108.45
122.96
130.04
121.75
95.07
53.91
4.36
-39.20
-62.42
-61.68
-45.11
-23.81
-4.28
13.04
30.03
48.86
68.14
82.48
85.39
72.73
44.43
3.29
-43.92
-88.53
-123.42
-145.67
-157.70
-164.62
-170.37
-175.84
-179.33
-178.38
-171.69
-159.91
-145.17
-130.61
-119.01
-112.20
-110.70
-113.94
-119.82
-124.71
-123.63
-111.47
-85.62
-47.53
-3.18
38.87
70.82
88.81
93.51
89.27
81.42
73.66
67.73
63.79
61.70
61.56
62.98
63.64
59.34
45.60
19.76
-15.74
-54.34
-87.46
-107.80
-112.04
-101.45
-80.27
-51.79
-20.93
10.11
40.23
67.68
89.50
102.57
104.86
96.22
78.15
52.91
24.10
-4.55
-29.17
-45.50
-51.48
-47.99
-38.55
-27.94
-20.04
-15.07
-10.39
-1.75
12.97
32.08
49.46
58.78
56.47
43.76
27.57
16.51
16.57
28.20
46.60
64.56
76.63
81.27
80.66
78.78
78.24
79.20
78.43
71.91
57.21
34.56
6.87
-21.23
-44.82
-60.59
-67.50
-66.98
-62.40
-57.25
-54.44
-55.82
-62.24
-73.45
-88.08
-103.28
-113.66
-115.80
-108.11
-92.47
-73.56
-57.23
-47.41
-44.74
-46.40
-47.69
-45.50
-37.82
-25.02
-9.01
7.44
21.66
31.83
37.94
42.49
48.89
60.25
76.88
96.04
112.58
121.51
120.11
106.76
85.11
59.38
32.09
3.67
-25.37
-53.25
-76.36
-89.73
-88.96
-71.92
-40.96
-2.53
33.99
60.12
69.23
60.33
37.95
10.96
-13.08
-28.68
-32.98
-26.00
-9.30
13.44
36.92
54.88
60.01
49.89
26.91
-1.91
-30.69
-53.19
-64.92
-63.17
-47.37
-18.99
18.43
58.97
95.20
116.79
118.44
101.79
74.83
47.86
28.90
20.26
19.05
17.78
10.12
-5.51
-26.07
-45.69
-58.82
-61.60
-54.23
-41.96
-32.27
-30.83
-38.50
-52.13
-66.90
-79.54
-88.24
-91.70
-88.14
-74.83
-48.95
-9.51
40.18
92.14
132.78
150.08
140.17
109.48
71.60
40.98
26.63
28.84
40.58
51.82
55.87
50.01
35.24
14.57
-8.29
-29.76
-46.75
-56.34
-57.32
-51.87
-44.20
-38.86
-38.61
-43.24
-50.07
-55.71
-57.51
-53.21
-44.40
-32.93
-21.24
-12.00
-6.96
-6.55
-8.33
-9.17
-8.07
-6.51
-6.36
-7.02
-5.24
3.47
21.53
47.61
75.49
94.96
97.60
81.29
51.25
17.77
-7.29
-18.26
-14.05
0.89
18.62
31.34
34.33
27.03
12.05
-4.28
-15.34
-17.93
-13.91
-7.93
-4.47
-5.78
-11.66
-20.13
-29.27
-38.39
-46.86
-52.98
-54.70
-50.17
-38.69
-23.22
-6.09
9.18
18.00
16.03
0.93
-25.67
-57.71
-85.10
-98.18
-93.22
-75.79
-56.82
-45.47
-44.66
-51.12
-59.22
-63.30
-60.47
-50.31
-34.26
-13.85
10.24
37.82
67.48
96.75
122.73
139.02
140.15
123.88
92.87
53.57
12.82
-24.33
-54.45
-76.96
-90.53
-92.61
-80.58
-52.54
-8.22
49.56
111.74
163.96
191.99
189.05
159.63
116.75
75.58
46.73
33.02
30.45
32.25
33.08
31.55
29.25
28.45
30.40
34.41
38.56
40.45
39.05
33.09
22.76
8.46
-10.07
-33.49
-61.88
-93.40
-122.44
-142.13
-147.39
-137.14
-115.20
-88.85
-65.45
-49.58
-41.75
-39.92
-41.74
-45.91
-52.32
-60.76
-69.86
-76.55
-77.84
-70.29
-52.58
-25.99
5.96
37.95
64.19
79.01
79.78
68.47
51.39
36.20
28.66
30.25
37.93
45.80
47.97
42.04
29.10
13.58
1.25
-3.20
1.89
14.33
28.62
37.72
36.40
23.68
2.88
-20.26
-40.29
-54.12
-61.59
-63.38
-59.51
-48.88
-30.62
-5.83
21.28
44.08
55.61
53.19
39.73
22.18
7.96
1.12
0.87
3.08
3.30
-0.07
-4.53
-5.66
-0.29
11.16
24.18
32.72
32.36
22.34
5.55
-13.06
-29.73
-43.60
-55.89
-67.94
-79.33
-86.54
-84.68
-70.00
-41.43
-2.28
39.99
75.87
95.92
95.84
77.15
47.81
16.06
-9.96
-24.78
-26.77
-17.90
-2.50
14.88
29.26
36.77
35.49
25.90
10.11
-9.00
-28.18
-44.75
-55.12
-55.94
-44.97
-21.87
11.32
49.68
85.96
112.38
120.76
109.10
81.59
47.26
16.38
-3.52
-10.60
-8.52
-3.41
-0.39
-0.52
-1.81
-1.15
3.24
9.67
14.24
12.98
3.53
-14.47
-39.01
-66.44
-92.04
-110.75
-117.33
-110.09
-91.71
-68.43
-48.02
-36.11
-34.46
-40.69
-50.13
-58.39
-63.09
-64.18
-61.71
-55.50
-45.10
-30.56
-13.25
4.59
21.00
35.31
47.97
59.91
70.97
79.63
83.75
81.59
72.71
58.19
39.89
19.71
-0.65
-19.34
-33.30
-38.42
-31.59
-12.70
14.19
41.69
61.41
67.26
57.29
31.87
-4.28
-44.79
-83.26
-113.75
-131.22
-132.56
-117.42
-89.07
-53.10
-16.55
14.12
35.48
48.20
56.14
64.06
76.44
96.41
126.08
164.27
205.60
241.29
262.19
262.10
239.75
199.66
144.23
83.41
29.57
-8.04
-27.21
-31.55
-26.32
-18.08
-12.06
-12.32
-20.42
-36.86
-61.42
-91.77
-122.76
-146.17
-154.86
-146.76
-126.80
-102.53
-82.01
-65.46
-50.13
-33.01
-12.54
7.31
21.07
23.98
14.89
-3.80
-26.79
-48.53
-64.26
-72.86
-77.12
-81.42
-88.65
-98.12
-106.25
-108.06
-100.10
-81.50
-52.83
-20.16
7.04
21.72
23.68
18.36
13.87
13.00
14.39
15.04
12.79
8.61
7.73
17.25
42.47
84.24
137.38
192.14
236.75
261.14
255.39
219.60
165.30
110.88
72.46
55.97
58.07
67.66
74.36
71.65
58.10
35.41
5.18
-29.22
-63.05
-90.36
-105.97
-107.18
-94.80
-72.19
-44.44
-17.61
4.24
20.30
33.07
46.18
61.94
79.24
94.23
101.76
96.94
79.38
53.75
27.82
8.05
-3.17
-7.97
-10.40
-14.13
-22.41
-35.49
-51.70
-69.06
-87.10
-107.16
-130.96
-158.69
-189.20
-223.04
-259.82
-298.10
-335.18
-367.69
-392.10
-404.83
-402.93
-371.26
-306.88
-220.39
-130.88
-54.38
2.65
41.43
64.06
75.69
79.70
77.09
71.45
69.28
78.04
102.74
142.57
191.68
240.85
279.65
294.64
278.92
236.69
182.63
134.38
103.36
91.25
92.75
97.67
96.54
84.40
60.93
29.06
-6.60
-41.52
-68.88
-81.58
-76.96
-59.99
-40.00
-25.70
-21.57
-25.29
-32.54
-38.58
-39.50
-31.84
-12.74
18.59
59.86
104.88
145.16
171.82
179.57
164.59
131.42
91.71
58.38
40.53
35.05
34.71
32.23
22.16
2.26
-25.46
-55.76
-82.17
-99.00
-104.63
-102.62
-101.53
-110.34
-132.99
-164.63
-193.59
-207.67
-199.67
-171.26
-131.55
-92.59
-63.69
-47.66
-40.89
-37.12
-31.59
-21.52
-5.79
16.36
45.45
80.89
120.07
158.07
188.77
201.44
189.23
155.09
111.78
74.03
49.25
36.37
27.28
16.06
1.47
-12.43
-19.24
-14.55
2.34
26.65
48.77
58.14
49.46
25.03
-6.27
-32.78
-48.57
-52.53
-47.24
-36.71
-24.41
-11.76
0.56
10.88
16.12
13.96
6.21
-2.10
-6.40
-6.39
-4.87
-4.80
-7.25
-10.76
-13.03
-10.72
-1.70
13.24
30.16
42.92
45.10
34.21
16.10
-0.70
-8.48
-4.49
8.99
23.69
30.40
23.45
3.40
-24.22
-50.05
-63.62
-58.96
-38.45
-13.00
7.80
18.78
19.77
13.64
2.77
-11.39
-28.15
-46.70
-63.38
-72.36
-70.32
-58.95
-44.12
-31.79
-24.64
-21.01
-18.69
-15.10
-8.77
-1.71
4.00
7.23
7.14
4.03
0.49
-0.46
2.34
6.09
6.49
1.33
-7.92
-16.63
-18.82
-10.48
7.89
31.28
51.43
59.97
52.64
34.00
11.98
-5.59
-13.81
-11.82
-1.51
13.33
28.55
40.49
45.56
41.86
31.76
20.64
13.37
8.74
3.32
-4.95
-15.81
-26.29
-32.31
-30.65
-21.15
-7.71
2.50
3.32
-5.04
-17.07
-25.82
-26.62
-19.00
-6.49
4.65
8.54
2.12
-13.09
-30.80
-42.71
-42.74
-31.50
-16.36
-6.86
-7.45
-15.55
-23.37
-22.18
-7.36
20.26
52.76
78.65
87.01
72.78
39.78
-0.83
-33.47
-51.25
-54.71
-48.59
-41.75
-42.47
-55.64
-82.07
-119.52
-161.55
-200.05
-226.55
-234.66
-221.66
-188.45
-138.96
-79.07
-15.62
46.13
101.18
145.53
176.78
194.68
201.76
202.72
203.25
208.25
222.26
246.05
276.01
304.68
323.10
323.67
303.16
263.61
202.81
127.91
52.26
-10.38
-52.59
-74.48
-80.86
-76.59
-65.15
-50.45
-36.40
-28.27
-31.41
-48.86
-79.28
-117.50
-154.09
-177.44
-179.81
-161.29
-130.27
-99.00
-78.63
-70.42
-69.66
-68.21
-58.85
-37.50
-7.08
25.77
52.82
66.22
61.87
39.24
5.50
-26.52
-44.66
-43.74
-26.69
-1.54
22.76
42.04
54.67
60.34
58.16
46.56
23.65
-9.95
-47.97
-79.47
-94.26
-89.06
-68.50
-44.26
-22.63
-5.81
7.97
21.82
37.89
53.06
61.81
58.42
40.21
9.59
-27.62
-61.57
-82.18
-84.61
-71.39
-49.33
-24.63
-0.10
24.38
48.14
68.69
82.66
86.98
80.66
65.62
46.10
26.95
11.81
0.68
-9.25
-22.13
-42.53
-72.42
-112.62
-162.42
-218.92
-271.10
-305.81
-312.20
-287.72
-240.33
-184.24
-134.12
-99.77
-83.60
-81.69
-87.74
-97.16
-106.63
-114.21
-117.02
-111.07
-92.44
-59.75
-16.28
29.28
65.90
85.33
82.99
64.43
42.97
33.65
46.37
81.62
130.63
180.24
219.17
241.98
250.17
248.98
243.62
237.31
231.62
228.03
228.97
237.02
252.93
274.08
294.04
304.17
297.25
270.60
227.25
174.74
121.76
75.02
37.83
10.58
-8.05
-19.71
-25.76
-27.90
-28.63
-32.23
-43.94
-67.58
-102.96
-144.86
-184.18
-211.22
-219.76
-209.19
-185.30
-157.41
-133.69
-117.42
-106.55
-95.77
-79.62
-54.55
-19.29
24.22
70.88
113.68
145.29
159.93
155.16
133.01
95.74
52.28
15.13
-6.53
-10.99
-2.96
11.30
27.58
43.93
59.73
74.32
85.22
87.92
78.74
56.48
23.21
-16.64
-58.28
-95.98
-125.12
-143.77
-153.88
-158.78
-162.22
-167.30
-176.58
-192.40
-216.32
-247.80
-275.21
-286.20
-270.84
-228.29
-167.68
-103.18
-47.62
-7.73
16.84
31.05
38.57
43.77
48.98
56.17
67.35
84.27
106.95
132.72
154.52
163.08
155.11
134.22
109.68
90.95
84.19
90.38
106.66
127.94
147.05
157.78
154.10
131.67
88.92
29.42
-38.48
-99.86
-137.96
-149.27
-138.02
-115.86
-93.87
-85.09
-97.82
-132.11
-179.65
-223.53
-247.00
-238.65
-199.26
-140.03
-76.30
-19.85
21.89
51.10
69.74
77.77
76.45
68.80
60.24
55.80
59.04
68.63
78.68
81.47
71.87
50.42
21.22
-9.84
-37.94
-60.73
-76.22
-81.85
-75.61
-56.62
-25.47
14.11
56.56
92.90
113.38
113.14
95.39
69.04
43.93
27.66
19.00
14.47
11.51
11.18
17.49
34.62
63.60
97.60
125.16
134.39
120.13
85.41
39.50
-6.98
-45.33
-73.57
-90.82
-95.64
-86.74
-63.78
-29.21
11.58
49.96
75.30
79.19
61.25
30.40
0.39
-17.25
-18.57
-7.30
8.70
22.37
29.45
28.53
20.21
6.24
-10.15
-24.57
-32.34
-29.29
-14.64
6.74
26.03
35.41
31.32
15.67
-6.24
-28.83
-48.35
-61.14
-63.53
-52.65
-27.88
7.52
46.58
80.62
99.82
98.12
78.19
50.89
29.82
24.41
35.69
57.19
79.59
94.76
100.21
97.77
91.04
82.21
70.93
54.89
31.02
-3.32
-50.77
-110.55
-178.38
-246.95
-307.08
-349.90
-368.90
-362.15
-322.92
-257.05
-180.50
-111.94
-62.93
-33.73
-17.69
-7.61
0.07
5.32
4.14
-4.05
-15.60
-24.51
-24.64
-12.42
12.42
47.24
87.74
128.22
162.90
187.45
195.91
185.28
158.02
122.88
91.18
70.78
62.23
59.91
57.42
49.98
38.10
25.91
18.91
21.11
33.03
52.33
72.76
87.20
88.63
74.28
46.74
13.16
-16.60
-39.17
-53.97
-61.61
-62.97
-59.49
-52.54
-45.59
-43.06
-48.07
-59.74
-72.13
-78.19
-74.09
-60.50
-40.72
-18.54
3.26
23.56
39.67
47.77
43.65
25.12
-5.86
-42.80
-76.68
-98.59
-102.46
-90.34
-71.03
-56.11
-54.08
-66.14
-87.23
-109.41
-126.49
-135.64
-136.94
-130.42
-115.56
-91.66
-58.88
-20.48
17.33
47.89
67.55
74.73
74.14
73.59
79.57
94.80
115.97
135.97
147.63
147.65
137.75
123.57
111.33
105.61
110.14
126.59
154.38
190.35
228.85
262.63
284.49
289.01
264.77
210.15
135.38
58.38
-4.84
-46.88
-68.79
-75.34
-71.58
-60.57
-44.72
-27.91
-16.03
-15.58
-30.89
-62.14
-105.03
-151.60
-189.58
-207.20
-199.79
-172.89
-139.00
-111.03
-96.70
-95.85
-102.48
-109.56
-111.61
-106.50
-94.80
-78.11
-57.96
-36.54
-16.68
-1.49
6.72
5.54
-2.21
-13.09
-25.26
-37.64
-50.12
-61.74
-69.32
-68.28
-54.97
-29.27
4.73
38.19
64.21
78.04
79.84
74.03
66.55
62.27
64.09
74.01
92.72
119.74
151.79
183.44
208.04
219.06
212.27
181.77
131.04
72.03
20.40
-13.15
-26.31
-22.82
-10.86
1.27
6.65
1.64
-14.76
-41.50
-74.63
-107.18
-129.48
-133.64
-118.86
-92.75
-66.23
-49.04
-41.60
-39.36
-35.79
-25.19
-5.28
21.94
51.32
77.44
95.86
104.07
101.15
86.58
63.96
39.92
21.40
12.24
12.46
20.09
33.38
51.27
73.10
97.96
121.79
137.86
139.03
120.10
80.36
24.15
-41.14
-105.41
-158.14
-191.48
-202.16
-192.29
-169.25
-142.60
-121.24
-111.05
-113.39
-125.41
-141.49
-155.49
-163.09
-164.47
-162.55
-160.67
-160.17
-159.02
-152.55
-135.94
-107.12
-63.00
-10.06
38.53
70.35
80.84
75.06
62.53
51.03
43.69
40.55
40.69
45.16
56.97
78.56
109.08
141.92
167.32
174.43
157.90
121.68
78.54
43.56
26.41
27.92
41.91
59.81
74.76
82.75
83.04
76.57
65.28
51.18
35.80
19.98
3.84
-12.64
-31.08
-54.01
-83.97
-120.28
-160.61
-200.74
-234.62
-255.82
-252.99
-222.53
-171.85
-116.54
-71.48
-44.66
-35.95
-40.08
-51.11
-64.52
-79.39
-96.07
-113.41
-128.32
-136.14
-133.80
-120.92
-99.50
-71.85
-40.75
-8.26
25.72
63.96
108.35
158.55
212.63
263.13
304.98
335.08
352.14
348.10
320.70
271.89
207.22
134.00
59.06
-11.34
-69.62
-115.70
-149.19
-166.98
-167.43
-151.66
-123.20
-86.72
-45.82
-3.00
39.71
81.94
126.62
175.77
228.71
281.16
325.80
354.66
361.26
342.48
291.62
214.40
126.28
46.09
-12.93
-48.04
-64.33
-69.26
-68.88
-65.47
-57.60
-44.34
-27.07
-8.90
6.73
18.15
25.68
29.80
31.77
32.73
32.96
31.69
28.06
20.84
10.45
-0.79
-11.25
-19.39
-23.64
-23.05
-18.00
-9.80
-2.28
0.97
-2.51
-16.53
-41.17
-75.52
-116.63
-160.24
-201.72
-238.53
-267.84
-273.54
-244.94
-181.42
-93.49
3.38
87.53
154.74
204.13
236.75
255.21
261.48
255.95
239.09
212.60
179.00
138.45
89.33
32.46
-28.18
-89.31
-148.99
-206.56
-261.81
-314.46
-368.03
-426.59
-490.02
-553.38
-611.00
-658.92
-695.45
-720.30
-703.15
-627.56
-499.59
-344.49
-190.74
-57.01
49.82
130.15
187.46
224.95
243.82
242.74
222.97
190.29
153.06
119.73
96.94
88.83
97.91
119.23
141.22
150.83
140.20
109.60
65.76
17.22
-29.45
-69.01
-101.68
-130.66
-157.07
-178.42
-191.24
-193.18
-184.25
-165.99
-137.00
-96.51
-44.05
18.35
87.37
158.39
226.33
285.82
332.59
368.99
398.94
426.19
452.91
479.94
506.83
533.77
560.96
563.39
527.99
457.14
368.10
281.22
209.68
156.27
117.81
87.07
55.46
19.17
-22.82
-68.56
-113.94
-149.68
-172.90
-180.22
-171.12
-149.26
-118.62
-84.02
-49.62
-18.98
5.86
23.64
34.42
37.69
32.53
16.47
-13.14
-51.34
-87.67
-110.48
-114.27
-101.44
-80.25
-59.59
-43.24
-29.52
-13.42
6.87
28.02
42.97
45.19
31.31
2.26
-37.28
-79.23
-114.47
-138.25
-151.24
-157.96
-163.47
-171.15
-181.88
-193.93
-203.22
-204.39
-192.99
-166.81
-127.19
-79.39
-31.42
8.63
35.63
49.66
55.50
59.51
66.37
76.22
84.35
83.50
67.61
35.01
-10.37
-60.17
-104.58
-135.17
-146.97
-139.58
-116.58
-84.08
-48.88
-16.71
8.77
26.10
35.35
37.39
33.10
23.30
9.04
-7.69
-23.62
-35.14
-38.70
-32.51
-16.91
5.69
31.42
55.48
73.32
81.39
78.79
67.52
51.60
36.42
25.95
23.22
29.77
45.23
67.06
90.88
111.05
120.89
116.96
99.09
70.33
35.87
1.38
-28.49
-50.43
-62.14
-62.17
-50.20
-28.53
-2.17
21.93
37.04
38.86
28.37
11.65
-3.19
-9.66
-6.11
4.15
15.21
21.71
21.17
14.23
3.33
-9.22
-22.24
-35.69
-49.29
-61.76
-71.00
-74.09
-69.81
-58.71
-42.87
-25.20
-8.56
5.38
16.62
25.97
34.62
43.12
50.83
56.30
57.91
54.89
47.21
36.22
23.46
10.47
-2.00
-13.91
-25.54
-37.30
-49.73
-63.07
-77.23
-91.33
-102.80
-107.72
-102.17
-84.19
-54.89
-21.48
7.60
25.24
28.34
18.60
1.33
-18.07
-35.70
-50.34
-62.47
-71.86
-76.82
-75.00
-65.14
-48.21
-27.90
-8.91
5.05
13.61
20.25
29.38
43.88
63.27
83.86
100.89
111.70
117.00
117.84
118.02
117.65
112.92
99.16
74.43
41.46
6.73
-22.91
-43.59
-54.27
-56.60
-52.28
-41.29
-23.20
0.63
25.68
44.98
50.48
39.57
14.39
-19.09
-53.80
-84.27
-107.90
-124.50
-134.93
-139.43
-137.14
-127.70
-111.41
-89.54
-64.01
-37.17
-11.00
12.80
32.97
48.81
59.42
64.03
61.95
52.83
36.84
15.04
-10.95
-39.20
-67.73
-95.10
-120.25
-142.67
-162.14
-178.62
-191.69
-200.91
-205.93
-206.56
-202.77
-194.45
-181.36
-162.75
-140.84
-117.40
-94.34
-73.76
-57.56
-47.02
-42.22
-42.08
-44.56
-47.38
-48.42
-46.60
-42.11
-36.04
-29.51
-22.93
-15.73
-6.50
6.17
23.04
43.42
65.19
85.48
101.90
113.44
120.91
126.77
134.47
147.83
170.04
202.19
242.05
283.63
318.17
336.76
333.65
308.67
267.99
222.32
183.48
160.74
158.54
176.04
208.47
249.41
292.56
333.22
368.83
398.50
422.11
439.25
448.73
449.00
439.43
420.53
394.60
365.10
334.94
304.98
273.63
238.40
198.21
155.09
112.48
74.68
45.29
25.92
15.54
11.08
8.98
6.71
3.10
-4.63
-19.66
-44.03
-77.80
-119.34
-166.18
-215.70
-264.94
-311.18
-355.40
-400.29
-447.52
-496.38
-544.65
-589.96
-630.55
-664.92
-672.41
-637.64
-559.54
-453.16
-339.52
-234.32
-144.62
-71.50
-13.27
30.67
61.49
77.93
79.68
69.39
51.64
30.80
9.57
-11.18
-29.17
-41.27
-46.14
-43.32
-33.39
-17.77
1.68
23.23
45.85
69.26
92.09
112.15
128.14
140.13
149.14
156.33
161.59
164.12
163.06
157.11
144.50
124.29
96.53
63.11
27.64
-6.63
-37.28
-62.58
-81.66
-94.78
-102.78
-106.85
-108.39
-108.90
-109.79
-111.48
-113.24
-113.60
-111.42
-106.17
-98.17
-88.59
-79.00
-71.19
-66.55
-66.13
-70.17
-77.52
-85.00
-87.74
-80.77
-61.45
-31.40
3.73
36.23
59.67
71.39
72.91
68.41
62.14
56.38
51.11
45.26
38.17
30.56
24.12
20.21
19.01
19.36
19.43
17.28
12.06
4.18
-4.89
-13.28
-19.76
-24.03
-26.91
-29.81
-34.15
-40.59
-48.53
-56.42
-61.58
-61.67
-55.23
-42.26
-24.09
-2.95
19.04
40.37
60.15
78.46
95.48
111.32
125.88
139.04
150.67
160.12
165.60
163.98
152.60
129.43
95.90
57.02
19.79
-9.37
-27.13
-34.12
-33.86
-30.31
-26.26
-22.46
-18.48
-14.11
-9.96
-7.19
-6.66
-8.13
-10.13
-10.99
-9.43
-5.37
0.11
5.47
9.63
12.51
15.08
18.95
25.25
34.01
43.83
52.32
56.80
55.49
48.08
35.64
19.85
2.44
-15.59
-33.73
-52.01
-70.47
-89.14
-107.81
-125.88
-141.68
-152.25
-154.03
-143.41
-119.55
-85.43
-47.38
-12.99
11.83
24.88
27.96
25.16
20.63
16.45
12.71
8.62
3.83
-1.04
-4.88
-6.94
-7.60
-8.12
-10.10
-14.64
-21.61
-29.69
-36.92
-41.53
-42.40
-39.53
-33.62
-25.92
-17.62
-9.42
-1.57
5.99
13.25
20.02
25.86
30.35
33.25
34.67
35.24
35.81
37.25
39.88
43.50
47.35
50.27
51.07
48.56
42.01
30.51
14.84
-4.00
-24.65
-45.53
-64.78
-80.87
-92.56
-98.89
-99.44
-94.19
-83.94
-69.87
-53.47
-36.26
-19.43
-4.16
8.85
19.24
27.29
33.49
38.58
43.32
46.97
50.43
54.15
58.05
61.72
64.69
66.63
67.40
67.08
65.92
64.42
62.67
60.53
57.80
54.32
50.22
45.92
42.05
39.20
37.81
37.60
37.87
37.73
36.55
34.27
31.46
29.13
28.25
29.34
32.06
35.34
37.96
39.02
38.36
36.59
34.75
34.14
35.28
38.59
44.18
51.49
58.64
62.29
58.39
43.92
18.74
-13.60
-46.73
-73.91
-90.73
-96.60
-94.33
-88.13
-81.47
-75.83
-71.06
-66.41
-61.62
-57.20
-53.95
-52.18
-51.51
-51.14
-50.27
-48.55
-46.19
-43.71
-41.54
-39.87
-38.58
-37.50
-36.65
-36.15
-36.26
-37.04
-38.17
-38.96
-38.69
-36.66
-32.65
-26.94
-19.98
-12.49
-5.44
0.00
2.92
3.52
3.68
6.57
15.31
31.04
51.60
71.82
85.98
90.17
84.21
71.35
56.28
42.85
32.67
24.89
18.28
12.50
8.33
7.12
9.58
14.88
20.99
25.57
26.78
24.64
20.79
17.61
17.22
20.57
26.84
33.96
39.55
41.86
40.63
36.94
32.38
28.36
25.69
24.39
24.00
23.43
20.69
13.33
-1.23
-24.21
-54.11
-86.32
-114.29
-131.85
-135.00
-125.06
-106.38
-84.38
-63.26
-44.92
-29.43
-16.39
-5.66
2.12
6.04
6.34
4.27
1.67
0.24
0.90
3.37
6.57
9.18
10.05
9.08
6.95
4.74
3.46
3.55
4.83
6.59
7.95
8.27
7.47
5.96
4.37
3.27
2.95
3.30
3.99
4.56
4.70
4.35
3.69
3.00
2.50
2.34
2.48
2.79
3.11
3.30
3.30
3.16
2.90
2.62
2.41
2.32
2.36
2.56
2.85
3.11
3.25
3.24
3.16
3.21
3.62
4.57
6.38
9.23
13.11
17.89
23.30
29.02
34.55
39.23
42.12
42.38
39.10
31.64
19.90
4.31
-13.74
-32.33
-49.30
-62.83
-71.51
-74.98
-73.62
-67.84
-59.21
-48.44
-35.75
-21.14
-4.88
12.44
29.44
44.45
56.00
63.12
66.03
65.81
63.68
60.26
55.42
48.15
37.33
22.77
5.17
-13.84
-32.43
-49.00
-61.93
-69.23
-68.62
-58.11
-37.49
-9.35
21.31
48.98
69.42
81.67
87.99
91.92
95.51
97.71
94.51
81.82
58.36
27.12
-5.43
-32.28
-49.10
-55.68
-55.24
-52.36
-50.07
-48.93
-47.69
-44.96
-40.67
-36.32
-33.98
-34.83
-38.35
-42.60
-45.35
-45.21
-42.51
-38.91
-36.57
-36.96
-40.09
-44.67
-48.81
-50.90
-50.45
-48.22
-45.62
-44.18
-45.12
-49.03
-55.69
-63.53
-69.39
-69.21
-59.40
-38.68
-9.28
23.47
53.07
74.29
85.22
87.32
84.03
78.76
73.63
69.25
65.66
63.13
62.19
63.21
65.76
68.64
70.25
69.69
66.90
62.89
59.53
58.64
61.47
67.75
75.15
79.26
74.95
58.34
28.94
-9.05
-48.07
-80.10
-99.26
-103.78
-95.94
-80.09
-60.30
-38.97
-16.87
5.43
26.49
43.69
54.22
56.25
50.01
38.02
23.23
8.75
-3.64
-13.63
-22.04
-30.16
-38.79
-47.65
-55.34
-60.29
-61.37
-58.82
-54.24
-50.44
-49.50
-52.60
-59.27
-67.35
-74.22
-77.91
-77.95
-75.57
-73.18
-73.09
-76.82
-84.53
-95.42
-108.07
-120.41
-129.64
-132.45
-125.97
-109.07
-83.59
-53.90
-25.74
-2.90
13.63
26.14
38.76
54.71
74.06
92.60
104.31
104.47
92.16
71.11
47.99
30.28
22.35
24.12
31.90
41.23
49.16
55.36
61.32
68.39
76.47
83.76
87.83
87.28
82.63
75.97
70.01
66.83
66.89
69.26
72.12
73.77
73.58
72.10
70.70
70.85
73.34
77.68
82.35
85.33
84.31
77.82
65.23
46.91
23.74
-3.22
-32.93
-64.25
-95.79
-125.87
-152.40
-173.12
-185.78
-188.75
-181.46
-164.62
-139.95
-109.84
-77.20
-44.15
-14.08
11.19
30.88
44.95
54.01
59.16
61.59
62.48
62.83
63.22
64.35
66.21
68.15
69.20
67.87
62.54
52.06
35.95
14.65
-10.21
-36.27
-61.20
-82.50
-98.38
-107.71
-109.86
-104.73
-92.79
-75.03
-51.64
-24.85
4.50
36.19
69.84
104.31
137.03
164.10
181.55
186.72
178.95
160.11
133.31
101.08
67.17
33.82
2.58
-25.07
-47.81
-64.86
-76.05
-82.36
-85.39
-86.63
-87.41
-88.01
-87.78
-85.45
-79.91
-70.47
-57.51
-42.42
-27.14
-13.94
-4.41
1.01
3.01
2.87
1.97
1.14
0.57
0.10
-0.62
-1.63
-2.90
-3.91
-4.52
-4.91
-5.45
-6.52
-8.26
-10.59
-13.24
-15.85
-18.19
-20.29
-22.35
-24.68
-27.51
-30.87
-34.66
-38.70
-42.80
-46.88
-51.00
-55.37
-60.19
-65.68
-71.88
-78.71
-85.91
-93.08
-99.69
-105.11
-108.57
-109.26
-106.77
-100.29
-89.38
-74.09
-54.92
-32.84
-9.18
14.50
36.60
55.71
70.80
81.28
86.97
88.25
85.84
80.69
73.88
66.43
59.23
52.96
47.96
44.26
41.75
40.13
38.99
37.87
36.35
34.15
31.09
27.18
22.40
16.97
11.10
5.05
-0.91
-6.58
-11.79
-16.51
-20.65
-24.25
-27.44
-30.39
-33.35
-36.50
-40.08
-44.26
-49.19
-54.73
-60.79
-67.31
-74.24
-81.57
-89.24
-97.32
-105.81
-114.80
-123.95
-133.00
-141.72
-149.75
-156.74
-162.20
-165.55
-165.99
-164.92
-162.78
-159.85
-156.36
-152.50
-148.41
-144.17
-139.85
-135.43
-130.93
-126.04
-120.55
-114.39
-107.59
-100.30
-92.79
-85.37
-78.38
-72.17
-66.77
-62.22
-58.51
-55.58
-53.35
-51.70
-50.48
-49.51
-48.67
-47.66
-46.31
-44.48
-42.07
-39.06
-35.40
-31.08
-26.09
-20.51
-14.40
-7.96
-1.53
4.52
9.78
13.99
17.06
19.11
20.50
21.68
23.03
24.75
26.81
28.99
31.11
33.13
35.24
37.88
41.52
46.45
52.59
59.57
66.82
73.94
80.91
88.19
96.61
106.95
119.68
134.59
150.91
167.56
183.52
198.27
211.77
224.46
236.99
250.18
264.79
281.28
299.34
317.29
332.14
340.08
338.05
325.26
304.22
280.14
258.95
244.78
238.31
236.82
235.96
232.05
223.53
210.85
195.02
176.47
154.74
129.55
102.08
75.22
52.54
36.33
26.35
20.04
14.44
8.20
2.59
0.83
5.86
18.48
36.49
55.54
71.11
80.25
82.33
78.64
71.29
62.23
52.96
44.62
38.38
35.31
35.75
38.54
40.68
38.21
27.75
8.37
-17.55
-44.97
-68.13
-82.72
-87.09
-82.19
-70.15
-52.99
-32.05
-8.39
16.29
39.32
57.39
67.83
69.69
64.19
54.23
43.17
33.73
27.18
23.34
20.89
17.94
12.53
3.21
-10.38
-27.10
-44.41
-59.07
-68.57
-72.24
-71.80
-70.46
-71.11
-74.55
-78.69
-79.58
-73.82
-60.99
-44.62
-31.26
-27.67
-37.81
-61.14
-92.99
-126.78
-156.72
-179.92
-196.74
-209.73
-221.66
-233.73
-244.88
-252.49
-254.24
-249.62
-240.64
-230.87
-223.43
-219.11
-215.79
-209.61
-197.12
-177.14
-151.32
-123.05
-95.48
-70.25
-47.22
-25.39
-3.93
17.19
37.39
55.84
71.87
85.12
95.40
102.89
108.01
111.11
112.00
109.53
101.50
85.56
60.34
26.24
-14.69
-59.76
-106.55
-153.00
-196.50
-233.02
-257.25
-264.27
-251.73
-221.24
-178.24
-129.83
-82.38
-39.69
-2.92
28.56
55.73
79.62
101.64
123.94
149.54
181.70
222.72
272.73
328.83
384.97
433.42
467.16
482.09
478.39
459.66
430.66
394.76
352.85
304.17
248.80
189.68
132.92
85.95
54.31
39.04
36.11
37.76
35.23
21.42
-7.15
-49.33
-99.22
-147.76
-185.03
-203.56
-201.11
-182.02
-156.12
-135.26
-128.88
-140.23
-165.36
-194.59
-216.62
-222.82
-210.18
-181.94
-145.47
-109.11
-78.81
-56.64
-40.92
-28.05
-14.65
1.36
20.60
43.05
68.70
97.64
129.31
161.51
190.06
209.55
215.46
206.33
185.11
158.59
135.24
122.04
122.06
133.69
151.94
170.75
185.21
192.89
193.56
188.27
178.11
163.69
145.50
124.56
102.85
83.10
67.92
58.82
55.62
57.02
61.60
68.87
79.28
93.30
110.11
126.91
139.63
144.67
140.77
129.82
115.91
103.37
94.46
88.38
81.69
70.00
49.75
19.56
-19.30
-63.36
-108.12
-149.41
-184.59
-213.12
-235.89
-254.15
-268.45
-277.80
-280.35
-274.59
-260.61
-240.73
-219.40
-202.42
-195.57
-202.76
-224.11
-255.61
-289.82
-317.98
-332.87
-331.18
-314.57
-288.43
-258.97
-230.15
-203.05
-176.41
-148.09
-116.31
-80.11
-38.92
7.38
58.74
115.21
174.70
233.03
285.04
326.36
355.67
375.44
390.21
404.66
421.87
439.32
449.66
443.51
413.71
359.29
286.09
203.71
114.52
24.57
-59.63
-131.30
-184.40
-215.00
-221.46
-202.41
-163.58
-113.96
-62.43
-17.87
12.40
23.81
11.29
-28.00
-89.10
-161.68
-232.40
-289.30
-327.31
-348.78
-360.25
-369.33
-377.95
-383.30
-381.73
-370.95
-351.01
-324.64
-295.39
-265.02
-234.45
-202.56
-167.82
-129.89
-89.54
-48.46
-8.84
27.57
59.94
88.33
114.03
138.60
162.95
187.75
213.81
242.49
275.45
313.41
354.44
393.62
423.61
436.96
429.32
401.03
356.96
304.17
248.63
193.09
137.32
79.56
18.68
-44.17
-105.56
-160.53
-204.31
-233.50
-246.56
-243.58
-226.05
-196.58
-158.27
-114.67
-68.93
-24.38
15.65
48.07
70.33
80.86
78.96
64.51
36.74
-5.88
-63.41
-132.39
-204.50
-268.34
-313.66
-335.78
-337.24
-331.35
-328.52
-334.15
-348.00
-365.17
-378.75
-383.10
-375.51
-352.83
-311.84
-251.61
-173.40
-81.01
19.26
119.23
210.18
284.29
336.45
364.87
371.75
362.41
343.59
321.61
300.86
283.27
268.80
256.31
243.57
227.53
204.52
171.17
125.98
71.14
12.48
-42.05
-85.31
-114.03
-129.68
-137.23
-141.99
-146.44
-148.63
-143.45
-125.82
-94.11
-52.08
-7.73
30.04
55.04
66.08
66.82
62.96
59.06
56.65
54.29
49.72
42.04
32.71
24.77
21.04
22.42
27.60
33.80
37.91
38.24
34.91
29.88
25.59
23.99
25.48
29.17
33.36
36.66
38.89
40.14
40.52
39.54
36.14
29.50
19.94
9.30
-0.37
-7.40
-10.91
-10.99
-8.28
-3.58
2.03
8.31
15.67
24.63
35.74
48.47
60.75
69.21
70.28
61.17
41.39
12.36
-23.68
-64.05
-105.96
-145.66
-178.17
-196.87
-198.66
-183.53
-155.52
-120.92
-85.43
-52.45
-23.10
3.55
28.61
51.77
71.93
87.47
96.61
98.05
91.04
75.14
50.95
20.05
-15.31
-51.80
-85.65
-113.04
-130.56
-135.75
-126.40
-103.94
-70.81
-30.63
12.69
54.50
90.96
118.21
133.18
134.35
121.51
96.03
60.28
17.75
-28.04
-73.84
-116.77
-154.07
-183.03
-201.06
-206.00
-196.95
-174.05
-139.42
-96.57
-49.83
-3.60
37.86
70.67
92.24
102.03
102.23
97.50
93.30
92.46
95.83
99.68
97.98
85.79
62.19
30.46
-3.22
-32.71
-54.61
-69.04
-77.77
-82.17
-82.37
-77.07
-64.82
-45.10
-18.66
12.07
43.34
71.47
93.95
109.77
119.51
124.44
126.00
125.87
125.01
124.57
125.65
129.06
134.06
138.09
137.00
122.99
95.89
61.16
27.65
3.46
-7.00
-4.74
5.38
16.47
25.65
33.23
40.43
48.06
55.79
62.77
68.20
71.95
74.39
76.33
78.72
80.90
82.01
80.10
74.07
64.20
51.63
37.73
23.66
10.28
-2.53
-17.43
-35.90
-55.95
-72.39
-79.53
-73.77
-54.77
-25.23
9.70
39.11
54.70
55.00
45.06
31.98
21.32
16.20
18.05
26.58
31.89
25.36
4.23
-28.71
-70.04
-118.21
-172.31
-229.50
-286.35
-350.89
-429.46
-521.27
-618.50
-712.74
-798.89
-874.60
-937.10
-924.12
-805.75
-602.52
-371.24
-159.42
14.74
152.79
262.48
349.88
426.54
485.77
520.02
529.34
521.69
506.07
488.06
456.68
410.14
354.21
289.98
220.29
150.96
89.98
43.00
11.16
-7.43
-13.75
-9.45
-2.66
-0.02
-3.62
-11.30
-20.19
-28.85
-36.65
-41.50
-41.88
-40.43
-39.79
-41.20
-44.17
-47.83
-51.90
-56.67
-61.77
-66.99
-72.82
-77.92
-78.54
-69.99
-49.46
-18.39
17.50
50.96
75.53
88.04
89.59
84.19
76.35
68.98
62.64
56.36
49.23
40.93
31.73
22.13
12.42
2.83
-6.19
-13.95
-19.89
-22.81
-22.04
-17.33
-9.12
1.79
14.16
26.72
38.52
49.26
59.54
70.24
81.53
91.90
97.93
95.58
82.80
60.99
35.23
12.15
-3.10
-9.02
-8.28
-6.20
-8.19
-16.99
-32.19
-51.38
-71.77
-91.17
-108.15
-121.30
-127.12
-124.48
-113.06
-93.53
-68.36
-41.42
-16.62
3.10
16.53
24.55
29.24
33.17
38.45
46.03
55.42
65.76
76.34
86.89
97.73
109.52
121.26
131.05
136.30
134.33
123.24
102.16
71.50
32.46
-10.53
-51.79
-84.58
-102.95
-103.89
-88.91
-63.99
-37.38
-16.21
-4.17
-0.78
-2.70
-6.28
-9.47
-12.20
-15.52
-20.31
-26.27
-32.43
-37.85
-42.34
-46.43
-50.74
-55.34
-59.08
-60.19
-56.80
-47.92
-33.32
-14.44
6.05
24.70
37.85
42.97
38.66
24.93
3.23
-23.62
-52.03
-77.84
-96.90
-105.93
-102.77
-87.00
-59.92
-24.42
15.72
56.23
93.46
124.27
146.16
157.60
157.96
147.92
129.14
104.12
75.98
48.29
24.25
6.58
-2.88
-3.96
1.39
8.63
11.32
3.47
-17.24
-47.81
-79.30
-100.41
-102.86
-84.59
-50.50
-9.72
28.27
57.87
76.92
85.23
83.42
71.09
48.68
19.11
-12.14
-39.45
-60.23
-76.22
-91.88
-110.26
-129.99
-144.78
-146.48
-130.27
-98.18
-58.74
-22.56
3.12
17.32
24.81
32.45
45.15
63.64
85.64
107.60
126.45
140.23
148.11
149.62
144.41
132.59
114.47
91.52
65.89
39.84
15.30
-6.41
-24.50
-39.37
-51.45
-61.27
-68.79
-73.02
-72.43
-65.68
-52.85
-36.33
-21.15
-14.24
-20.11
-37.22
-58.08
-73.27
-76.60
-67.48
-49.59
-28.56
-7.68
13.37
36.85
64.12
94.07
123.04
146.98
165.41
178.33
187.46
194.77
200.72
202.55
195.69
175.10
134.97
77.26
6.72
-69.85
-144.40
-210.71
-262.26
-292.66
-299.22
-284.70
-257.73
-230.36
-212.70
-208.97
-209.38
-205.28
-188.39
-155.67
-110.34
-60.24
-12.97
28.21
64.46
99.19
133.97
168.11
198.58
223.53
240.31
247.98
247.54
240.66
228.49
210.28
184.62
147.69
101.20
48.10
-7.16
-59.23
-103.02
-134.75
-153.57
-160.64
-158.92
-151.92
-143.44
-136.00
-131.02
-129.27
-131.00
-135.70
-140.88
-142.08
-134.19
-114.48
-83.86
-47.29
-12.26
14.76
30.26
35.01
32.67
27.35
21.11
13.88
4.37
-8.62
-24.69
-42.67
-61.21
-79.51
-97.31
-115.17
-132.25
-146.47
-154.93
-154.60
-143.38
-120.79
-88.28
-48.99
-6.70
33.95
69.65
98.58
120.31
135.26
144.29
148.26
147.76
143.52
136.39
127.41
117.61
107.98
99.16
91.47
84.86
78.74
72.78
66.73
60.60
54.52
48.70
43.30
38.39
34.33
30.65
27.18
23.84
20.66
17.68
14.90
12.38
10.11
8.12
6.26
4.56
2.99
1.58
0.28
-0.93
-2.01
-2.99
-3.80
-4.47
-4.96
-5.19
-5.05
-4.40
-3.13
-1.05
1.84
5.56
9.86
14.40
18.78
22.62
26.03
28.75
31.05
33.38
36.28
39.96
44.40
49.08
53.41
56.44
57.52
56.50
53.56
49.10
43.35
36.47
28.38
19.05
8.32
-3.63
-15.91
-27.29
-36.43
-42.33
-44.51
-43.03
-38.41
-31.37
-22.69
-13.03
-3.09
6.36
14.63
21.68
28.23
35.21
42.66
48.73
49.92
42.21
24.09
-2.21
-30.91
-55.12
-70.12
-75.44
-74.75
-73.09
-74.40
-79.10
-84.68
-87.69
-85.69
-77.85
-64.17
-44.73
-19.33
10.94
42.83
71.03
89.88
96.10
90.99
80.55
73.12
78.05
101.13
141.85
193.12
243.66
281.70
298.38
289.94
258.03
208.62
149.61
88.77
32.42
-15.13
-51.28
-74.93
-86.30
-87.23
-81.26
-73.78
-70.93
-77.64
-95.87
-123.64
-155.40
-183.76
-201.96
-205.73
-194.35
-169.92
-135.72
-94.67
-48.48
1.89
54.97
107.76
155.68
193.88
219.04
230.73
231.08
223.03
208.39
186.90
156.82
116.75
67.65
13.35
-40.59
-88.90
-128.39
-158.40
-180.22
-195.43
-204.65
-207.05
-201.29
-187.19
-166.99
-145.64
-129.46
-124.12
-132.48
-153.87
-184.77
-220.48
-256.65
-289.61
-315.77
-330.61
-328.76
-305.49
-259.01
-192.40
-113.55
-32.64
41.39
103.49
153.27
193.14
225.51
250.44
265.82
269.04
259.00
237.17
206.95
172.14
135.79
99.96
66.79
39.31
21.32
15.74
23.07
41.09
65.83
93.28
120.54
145.68
167.14
182.83
189.77
185.12
167.39
137.04
96.07
47.18
-7.43
-65.20
-122.58
-176.00
-222.05
-258.05
-282.81
-296.82
-301.60
-299.63
-292.30
-279.67
-263.30
-245.91
-230.30
-218.38
-210.50
-205.80
-204.72
-207.80
-215.94
-233.24
-263.79
-307.53
-358.54
-405.61
-435.30
-438.00
-408.36
-346.47
-261.45
-166.82
-74.78
6.68
74.52
140.43
203.04
246.51
270.56
279.27
275.26
262.59
246.11
230.40
218.63
210.60
206.73
209.90
221.25
240.51
266.25
294.76
320.75
339.22
346.37
343.32
335.74
327.53
318.79
305.83
282.38
242.97
185.92
113.77
33.57
-45.30
-115.76
-173.64
-216.73
-244.44
-257.69
-259.60
-255.55
-250.95
-248.57
-247.65
-243.44
-229.01
-199.08
-153.17
-96.34
-37.40
14.72
53.87
77.43
85.83
81.88
69.69
53.75
37.63
22.75
7.84
-9.99
-32.47
-57.74
-79.37
-88.53
-77.78
-44.69
6.99
68.92
131.47
186.66
229.15
255.83
264.80
255.35
228.99
190.31
146.65
106.18
74.88
54.01
39.71
24.42
0.26
-37.68
-89.35
-149.65
-210.20
-262.03
-297.73
-312.52
-304.35
-273.47
-222.14
-154.71
-77.80
0.38
71.27
127.85
166.42
187.11
193.05
188.81
178.81
166.77
155.69
147.97
144.89
145.69
147.13
144.38
133.21
112.17
83.73
53.23
26.19
5.94
-7.31
-15.28
-19.59
-20.11
-15.08
-2.13
20.41
52.79
93.88
141.07
189.82
233.43
263.92
273.92
259.41
221.77
167.87
108.02
52.37
7.58
-24.49
-45.70
-59.33
-67.88
-72.78
-74.93
-75.28
-75.64
-78.62
-86.98
-102.44
-124.41
-150.03
-176.13
-200.34
-220.91
-236.03
-243.27
-239.18
-219.52
-179.99
-118.34
-37.78
53.24
144.46
227.88
299.37
357.68
402.13
430.47
438.22
418.05
363.79
275.40
161.12
34.37
-91.80
-208.75
-312.97
-392.97
-433.98
-429.54
-388.08
-325.69
-255.98
-187.22
-123.87
-67.88
-19.33
20.85
51.75
73.78
89.34
101.74
113.16
124.38
135.49
147.16
158.13
166.94
173.10
177.69
182.46
188.21
194.71
201.13
206.97
210.41
209.82
204.51
195.04
182.67
168.16
151.21
130.00
107.74
85.24
62.63
39.96
17.51
-4.26
-24.95
-44.10
-61.11
-74.69
-84.22
-88.92
-88.01
-80.93
-67.43
-47.95
-23.54
4.39
34.32
64.11
91.83
115.62
133.89
145.36
149.27
145.41
134.52
118.18
98.09
76.09
53.77
31.94
10.58
-10.83
-33.02
-56.18
-79.88
-103.53
-126.42
-148.11
-168.92
-189.90
-212.73
-238.56
-267.37
-298.13
-328.82
-356.66
-378.49
-390.77
-390.42
-376.01
-348.20
-309.64
-265.04
-220.26
-180.74
-150.26
-129.66
-116.62
-107.88
-99.31
-86.97
-68.53
-44.00
-15.31
14.53
42.30
63.85
70.68
55.74
18.03
-34.91
-88.68
-126.20
-133.74
-106.37
-52.18
4.12
37.92
36.14
0.74
-56.84
-121.58
-179.55
-219.08
-233.59
-231.21
-220.16
-203.69
-182.40
-161.43
-150.35
-157.91
-186.62
-234.37
-308.15
-408.14
-523.36
-636.66
-736.67
-821.09
-892.68
-953.98
-915.45
-732.90
-439.45
-120.97
155.27
366.76
520.19
625.66
708.89
779.62
824.29
831.46
803.31
754.73
694.94
624.58
548.25
475.97
415.40
359.20
299.40
235.78
175.95
127.48
94.68
78.85
79.05
90.14
99.60
98.29
84.76
64.21
42.75
25.13
14.57
12.56
17.32
22.70
23.54
18.18
8.20
-3.83
-15.34
-23.77
-27.42
-26.47
-23.39
-20.70
-20.03
-21.79
-25.97
-32.56
-41.14
-50.33
-57.71
-59.30
-50.56
-28.86
4.72
44.44
80.80
103.68
106.01
86.07
48.05
0.16
-48.75
-91.01
-121.05
-135.97
-135.15
-119.92
-93.80
-62.99
-32.97
-10.15
0.37
-3.04
-17.76
-37.35
-52.87
-57.40
-47.17
-23.19
9.07
42.47
70.88
91.47
104.45
111.88
115.69
117.30
117.34
116.17
114.39
113.07
113.74
117.26
123.43
130.81
137.94
143.60
147.21
148.49
147.68
144.97
139.83
131.16
117.63
98.45
73.85
45.28
15.11
-13.71
-38.90
-59.54
-75.91
-88.95
-99.94
-109.41
-117.10
-122.09
-124.17
-122.84
-118.86
-113.69
-108.68
-105.21
-104.15
-105.92
-110.21
-115.67
-119.27
-117.01
-105.09
-82.04
-50.15
-15.02
16.33
38.30
48.84
49.89
45.49
39.57
34.24
29.53
24.64
19.22
13.86
9.76
7.79
7.70
8.27
8.01
5.64
1.00
-5.00
-11.01
-15.82
-18.91
-20.62
-21.97
-24.10
-28.04
-34.14
-42.04
-51.14
-60.86
-70.92
-81.23
-91.74
-101.96
-111.12
-118.14
-120.68
-116.56
-104.15
-82.73
-52.66
-15.62
25.95
68.47
108.08
141.16
164.52
175.75
173.50
157.53
127.56
86.56
37.90
-14.64
-66.98
-115.34
-156.53
-187.58
-206.20
-211.21
-202.33
-180.63
-148.22
-107.86
-62.70
-16.70
26.76
65.09
96.39
119.97
135.72
144.19
146.52
143.97
138.00
130.00
121.16
112.28
103.85
96.02
88.72
81.89
75.22
69.23
63.57
58.21
53.23
48.72
44.65
40.88
37.27
33.69
30.14
26.63
23.38
20.58
18.36
16.71
15.43
14.26
12.92
11.30
9.44
7.65
6.30
5.66
5.74
6.23
6.63
6.44
5.46
3.94
2.56
2.13
3.19
5.71
8.97
11.92
13.50
13.32
11.81
10.17
9.86
11.91
16.32
21.99
27.18
30.33
30.63
28.54
25.46
23.13
23.02
25.92
31.93
40.25
48.63
53.51
50.79
37.41
12.99
-18.60
-50.45
-74.80
-86.08
-83.46
-70.88
-54.94
-41.48
-32.87
-26.84
-18.83
-4.84
15.79
39.57
60.42
72.35
71.85
58.59
35.16
5.48
-26.00
-54.95
-76.67
-87.46
-85.16
-69.79
-43.69
-11.00
23.66
56.54
84.80
105.39
115.96
114.61
101.09
77.73
48.77
18.86
-7.82
-28.99
-44.24
-53.74
-58.37
-59.50
-59.17
-60.10
-64.51
-72.52
-81.08
-85.08
-79.38
-62.95
-40.32
-20.03
-10.54
-15.75
-33.16
-55.14
-73.55
-83.51
-85.31
-83.43
-82.73
-85.97
-92.21
-98.34
-101.15
-98.82
-91.28
-79.22
-63.74
-45.72
-26.28
-6.73
11.32
26.11
36.38
41.53
41.56
37.01
29.21
19.68
10.03
1.94
-3.70
-6.56
-7.06
-6.00
-4.32
-2.29
0.46
5.48
15.29
31.61
54.13
78.89
99.47
109.33
104.80
87.43
63.60
41.66
27.23
21.51
22.07
25.50
30.41
37.20
46.07
55.07
59.47
53.92
36.30
9.94
-17.40
-36.79
-42.27
-33.74
-15.20
7.71
30.00
48.27
60.39
64.59
59.19
43.37
18.10
-13.00
-43.66
-66.43
-75.34
-68.48
-48.81
-23.26
0.46
16.73
24.33
26.11
27.21
32.14
42.76
57.90
73.37
84.24
86.06
77.05
59.33
38.47
21.63
14.17
16.62
24.55
31.26
31.02
22.53
9.41
-2.43
-7.83
-4.86
4.96
18.88
35.24
54.36
77.74
106.40
138.93
171.75
200.18
220.06
229.06
227.99
219.98
210.06
203.62
204.88
216.41
238.50
269.28
305.22
341.61
373.26
395.45
404.12
396.25
370.26
325.67
262.89
183.05
87.96
-19.71
-135.72
-254.65
-370.17
-476.11
-567.61
-641.90
-698.40
-738.33
-764.23
-779.22
-786.82
-790.32
-791.73
-790.66
-783.43
-763.83
-726.07
-668.14
-593.71
-511.24
-430.24
-357.20
-293.17
-234.46
-176.28
-116.59
-57.77
-4.98
37.06
66.93
86.76
100.75
112.86
125.17
137.96
150.82
163.96
179.11
199.02
226.56
263.81
311.14
366.66
426.38
484.80
536.26
575.91
600.19
606.41
593.99
564.81
522.54
472.21
418.47
365.58
316.73
273.37
233.91
196.66
160.83
125.94
91.42
54.67
13.03
-35.22
-90.61
-154.08
-222.89
-291.33
-352.89
-402.25
-438.58
-462.42
-474.68
-477.16
-474.72
-470.39
-464.55
-455.89
-441.38
-420.10
-391.13
-354.57
-292.01
-204.54
-111.49
-36.77
-0.77
6.81
-1.74
-17.62
-30.98
-36.25
-31.49
-13.35
22.44
77.92
152.11
237.32
324.14
403.98
458.66
470.00
432.89
358.65
266.29
172.73
85.15
4.87
-69.11
-138.55
-204.52
-265.54
-318.74
-364.34
-400.95
-429.01
-448.89
-460.61
-463.93
-458.41
-443.51
-419.68
-389.25
-355.27
-321.44
-289.56
-262.23
-239.96
-220.49
-199.51
-172.01
-133.79
-81.97
-16.15
61.90
148.31
237.91
325.01
403.89
469.22
516.78
544.46
552.34
542.34
517.69
482.41
440.63
395.80
350.37
305.70
262.54
221.35
182.37
145.83
112.11
81.47
53.91
29.23
7.23
-12.16
-28.70
-42.46
-53.78
-63.27
-71.68
-79.67
-87.44
-94.22
-98.20
-96.66
-87.09
-67.92
-39.14
-2.47
39.19
82.43
124.18
162.32
196.37
226.67
254.28
281.07
309.37
341.21
376.63
412.34
442.10
459.96
461.28
444.67
412.94
371.83
327.96
285.79
246.70
209.62
175.29
144.37
117.13
93.94
75.50
63.08
57.86
60.64
71.22
91.63
120.68
153.19
182.20
201.96
210.21
207.71
197.28
182.53
171.09
167.04
169.21
172.48
170.45
158.12
132.61
94.08
18.24
-94.53
-221.11
-330.53
-404.68
-445.34
-465.33
-478.00
-491.15
-506.73
-518.70
-523.15
-522.00
-520.10
-522.11
-527.63
-532.83
-533.03
-525.35
-505.96
-474.74
-436.03
-395.67
-357.91
-323.58
-291.34
-258.89
-224.13
-187.80
-152.05
-120.83
-97.93
-85.20
-81.55
-84.14
-89.02
-93.05
-94.04
-91.12
-84.68
-74.76
-60.75
-40.82
-13.23
24.58
72.47
127.10
183.35
235.72
280.89
317.72
347.93
373.81
400.75
431.22
463.37
492.71
514.54
526.44
528.08
522.36
512.96
508.65
515.40
533.09
555.80
573.50
575.64
553.34
504.83
403.84
249.25
65.37
-108.98
-241.91
-323.52
-356.16
-361.00
-353.97
-343.83
-329.69
-309.06
-285.50
-261.27
-237.34
-213.03
-188.82
-164.74
-142.42
-121.44
-102.68
-88.17
-78.79
-73.48
-68.32
-59.29
-48.46
-39.31
-35.44
-40.54
-56.48
-81.58
-111.91
-139.19
-161.65
-177.73
-185.70
-183.39
-169.64
-144.81
-111.26
-72.36
-31.28
8.77
45.90
78.74
105.95
126.40
139.10
143.81
140.72
131.35
117.56
102.07
88.22
79.00
76.69
81.63
91.03
94.92
83.42
51.46
2.98
-49.35
-90.91
-111.60
-108.96
-87.27
-54.68
-18.08
18.25
50.93
78.50
98.62
108.41
106.00
91.38
65.69
32.08
-5.56
-45.57
-87.36
-131.23
-177.45
-226.14
-271.97
-311.05
-340.32
-348.29
-330.10
-288.35
-232.84
-175.38
-124.55
-83.43
-51.95
-27.37
-5.63
15.30
37.01
60.33
85.90
114.16
145.34
177.96
209.06
235.10
251.72
255.77
245.89
223.01
186.64
142.42
95.85
51.04
10.57
-24.68
-54.50
-78.69
-96.63
-107.62
-111.30
-109.29
-104.23
-98.87
-95.61
-95.51
-98.13
-101.79
-104.49
-104.53
-102.04
-98.27
-94.78
-93.02
-94.04
-98.32
-105.67
-114.63
-121.77
-122.71
-113.20
-91.33
-59.26
-23.12
9.17
30.88
39.03
35.25
23.93
9.77
-4.09
-16.78
-28.49
-39.57
-48.83
-54.50
-55.36
-51.44
-43.97
-34.54
-24.53
-14.17
-2.57
11.75
29.98
52.30
77.41
102.95
126.19
144.41
155.71
159.09
154.47
142.40
123.79
99.66
71.39
40.94
10.43
-17.80
-41.68
-59.79
-71.64
-77.64
-79.09
-77.61
-74.56
-71.09
-67.97
-65.64
-64.30
-64.03
-64.61
-65.70
-66.63
-66.11
-63.05
-56.53
-46.22
-32.21
-14.83
5.88
30.41
57.00
85.20
114.86
146.14
179.59
215.61
254.31
294.34
332.46
363.47
381.93
383.13
364.90
328.49
278.26
220.78
163.14
111.47
69.80
39.79
20.14
7.26
-4.04
-18.63
-39.92
-68.94
-104.56
-144.19
-183.96
-219.28
-245.27
-258.04
-256.32
-242.63
-222.51
-202.31
-186.11
-174.34
-164.55
-154.08
-142.61
-133.34
-130.66
-137.12
-151.25
-167.67
-179.94
-183.69
-178.09
-165.12
-147.29
-125.92
-100.97
-72.22
-41.16
-11.27
12.72
26.94
30.63
26.65
20.26
16.77
19.36
27.82
39.07
48.47
51.70
46.71
34.99
21.71
13.96
18.84
40.83
79.16
127.56
174.98
208.13
215.29
190.25
134.21
56.68
-26.10
-95.67
-136.84
-142.99
-118.13
-74.49
-25.77
18.65
56.90
93.33
133.32
178.14
222.86
258.46
276.51
274.21
254.52
224.21
190.19
157.38
128.82
106.87
94.95
91.94
98.76
115.59
140.11
166.12
183.70
181.96
153.41
97.86
24.02
-52.77
-117.13
-159.27
-177.75
-178.20
-169.17
-157.78
-147.74
-139.26
-130.57
-120.87
-110.70
-101.41
-93.96
-88.14
-82.77
-76.06
-66.60
-53.56
-37.39
-18.97
0.68
20.90
41.26
61.50
80.11
95.02
104.13
105.38
97.87
82.12
60.33
35.32
9.35
-16.72
-43.04
-69.91
-97.66
-125.96
-153.51
-177.61
-195.65
-206.26
-209.29
-205.34
-194.81
-177.41
-152.12
-117.65
-72.40
-16.86
45.13
107.12
161.57
201.38
221.54
220.14
194.31
149.23
97.01
52.33
26.77
24.50
40.59
63.31
78.50
74.99
48.13
0.59
-61.12
-128.31
-191.67
-243.03
-276.62
-290.75
-285.90
-263.83
-226.82
-177.45
-117.94
-51.49
17.01
83.59
139.16
175.04
186.11
172.66
139.66
94.98
45.35
-5.09
-56.75
-112.12
-166.15
-207.95
-224.05
-205.16
-150.66
-69.78
17.70
100.93
172.64
228.33
265.20
281.99
274.42
242.37
191.16
130.35
72.39
26.36
-5.01
-26.38
-47.02
-76.06
-117.59
-168.94
-222.88
-268.67
-296.87
-300.97
-278.40
-230.54
-162.41
-82.04
2.95
76.96
124.55
137.98
120.97
84.58
40.54
-1.47
-38.85
-70.40
-95.27
-111.11
-115.82
-109.19
-92.41
-68.50
-40.66
-10.79
21.47
56.70
95.87
138.33
180.81
217.68
242.96
252.53
245.50
225.33
197.56
168.97
145.70
132.10
130.31
140.24
159.65
178.50
185.41
170.22
129.94
71.42
8.18
-46.12
-83.23
-102.15
-107.51
-105.24
-99.82
-92.81
-84.05
-73.67
-63.03
-54.47
-50.00
-50.00
-52.55
-54.75
-53.67
-47.97
-38.20
-26.02
-12.99
0.07
13.40
28.03
44.60
63.42
82.42
98.25
107.60
108.33
99.97
83.40
60.52
33.22
2.57
-29.16
-60.56
-90.78
-119.26
-145.29
-167.31
-182.39
-186.67
-176.68
-151.59
-114.67
-72.73
-33.78
-4.12
13.82
21.58
22.76
20.81
17.24
11.56
3.05
-7.77
-18.84
-27.81
-33.70
-37.95
-43.88
-54.58
-71.39
-93.00
-114.71
-130.48
-135.25
-126.36
-103.77
-69.91
-28.48
15.71
57.35
91.62
115.75
129.96
137.33
141.83
145.31
145.92
138.82
118.83
83.86
37.06
-13.99
-60.22
-94.17
-112.15
-114.46
-104.76
-87.97
-70.24
-56.03
-45.99
-36.72
-23.01
-1.25
28.07
59.79
86.48
102.86
108.27
106.31
102.10
98.77
96.14
91.72
83.56
72.36
61.84
55.89
55.53
57.35
54.41
40.03
11.46
-28.59
-73.05
-113.10
-141.29
-153.00
-146.75
-123.95
-87.74
-43.31
2.48
42.38
71.32
87.98
95.09
98.45
101.14
104.30
106.29
103.94
94.99
79.55
60.17
40.68
24.36
12.99
7.43
7.49
12.36
20.50
29.39
35.49
35.41
27.36
12.42
-4.87
-18.49
-23.69
-19.30
-8.50
2.76
8.90
7.79
0.94
-7.80
-15.14
-20.59
-26.30
-35.69
-51.11
-72.35
-96.66
-120.15
-139.80
-154.45
-162.26
-163.85
-159.59
-148.79
-130.41
-103.95
-70.30
-32.06
6.28
39.69
64.71
80.57
89.65
96.63
106.62
121.89
140.22
155.35
158.28
145.02
115.59
74.76
26.59
-23.91
-71.81
-112.44
-141.46
-155.28
-152.20
-134.23
-106.39
-74.30
-41.41
-8.45
24.77
56.68
82.84
98.44
102.04
94.78
80.92
66.65
57.28
55.38
59.77
68.42
80.84
97.15
117.04
138.50
158.44
174.12
184.63
189.47
186.87
178.35
165.18
146.29
118.57
79.09
27.25
-34.23
-102.77
-174.51
-243.94
-305.87
-356.76
-395.46
-423.12
-443.02
-440.63
-409.71
-355.07
-288.01
-218.51
-150.65
-85.04
-22.42
34.21
79.74
112.11
129.89
134.38
128.56
115.87
98.82
78.90
56.30
31.67
5.43
-22.02
-49.54
-75.50
-97.67
-113.08
-113.11
-92.24
-52.44
-5.26
33.94
53.77
50.75
29.37
-0.98
-29.82
-52.54
-67.64
-75.70
-77.59
-73.15
-61.36
-40.87
-10.76
27.38
69.76
112.29
151.74
186.25
215.42
239.94
260.80
278.99
294.07
305.47
314.42
323.94
336.94
353.86
371.29
382.51
379.95
356.11
308.68
242.87
169.60
100.73
44.49
4.13
-20.89
-32.88
-38.16
-42.09
-47.18
-53.29
-59.97
-68.39
-80.63
-98.45
-122.56
-157.85
-207.79
-272.44
-347.84
-428.47
-510.19
-590.04
-665.34
-701.36
-672.99
-579.96
-449.05
-311.89
-187.37
-81.50
6.93
81.66
146.40
198.93
237.50
263.39
279.72
289.97
295.76
296.90
292.55
282.10
256.69
216.16
165.35
112.01
63.60
24.68
-3.24
-20.63
-28.91
-32.13
-33.33
-34.61
-36.19
-37.30
-37.50
-36.87
-35.64
-33.87
-32.33
-31.11
-30.35
-29.93
-29.65
-29.71
-30.46
-31.98
-33.85
-35.62
-36.47
-36.17
-35.02
-33.86
-33.75
-35.54
-39.33
-44.28
-48.99
-52.05
-52.82
-51.74
-49.91
-48.59
-48.79
-51.23
-56.31
-63.91
-72.62
-79.48
-80.28
-70.97
-49.84
-19.07
15.52
46.54
68.00
77.66
77.41
71.44
63.83
56.71
49.99
42.44
33.26
22.69
11.74
1.39
-8.30
-17.96
-28.27
-39.33
-50.09
-58.35
-61.46
-57.19
-44.77
-25.22
-1.06
24.16
46.81
64.17
74.74
78.51
76.64
70.71
62.34
52.80
42.90
33.21
24.41
17.40
13.21
12.49
14.99
19.60
24.72
29.21
33.32
39.01
48.55
62.35
78.54
92.36
98.65
94.54
81.13
62.83
45.52
31.88
22.54
16.70
13.76
14.32
19.31
27.48
34.06
31.26
11.66
-27.17
-80.27
-136.25
-180.75
-202.32
-197.15
-169.10
-126.89
-79.91
-34.88
4.83
38.14
63.93
79.67
82.83
73.16
53.93
31.55
13.53
4.88
6.65
13.92
18.49
13.57
-2.71
-26.40
-50.05
-66.57
-71.81
-65.51
-50.97
-32.61
-14.12
2.35
15.81
25.40
30.29
29.71
23.56
12.32
-2.41
-18.13
-32.17
-42.33
-47.57
-48.19
-45.66
-42.04
-39.64
-40.26
-44.67
-52.78
-63.43
-74.83
-84.87
-91.49
-93.00
-88.22
-76.23
-56.06
-27.83
7.20
46.49
86.64
123.99
155.24
177.90
190.71
193.92
188.97
178.39
164.95
150.91
137.74
126.33
117.29
110.89
106.22
100.19
88.20
65.76
31.01
-13.44
-60.80
-102.92
-133.93
-152.55
-161.44
-163.96
-160.94
-149.68
-126.16
-88.93
-41.81
6.45
45.70
68.98
75.44
69.81
59.50
50.87
46.92
47.24
49.86
53.13
56.59
60.03
62.39
61.39
54.79
42.41
27.47
15.85
13.22
22.49
40.89
61.86
77.56
82.17
73.89
55.09
30.65
5.55
-16.43
-33.67
-46.43
-56.11
-64.47
-72.87
-81.19
-88.02
-91.42
-89.90
-83.46
-73.91
-63.82
-55.44
-50.23
-48.26
-48.91
-51.32
-54.84
-58.74
-61.98
-62.72
-58.79
-48.61
-32.15
-11.37
10.40
30.44
47.99
64.74
83.83
107.56
135.42
163.90
187.75
202.18
205.11
197.21
180.75
158.61
133.48
107.60
83.45
63.06
47.23
34.54
22.60
6.87
-17.17
-52.03
-97.11
-148.40
-200.06
-245.78
-279.99
-298.72
-300.05
-284.18
-253.55
-212.58
-166.71
-121.11
-79.43
-43.14
-12.06
14.73
38.09
58.42
75.75
90.10
101.80
111.34
119.14
125.13
129.01
130.46
129.76
127.80
125.68
124.06
122.78
120.86
116.73
108.97
96.33
78.10
54.44
26.41
-3.94
-33.90
-60.70
-82.36
-98.14
-108.46
-114.57
-117.76
-119.57
-121.89
-127.23
-138.30
-157.04
-183.73
-216.92
-253.94
-291.79
-327.75
-358.91
-381.80
-392.36
-386.64
-362.24
-319.96
-264.04
-201.05
-138.11
-80.77
-32.37
5.87
34.55
55.45
70.83
82.91
93.76
104.60
116.23
128.48
140.30
150.73
159.80
168.65
179.14
194.01
215.32
245.09
283.58
328.94
378.42
429.22
478.43
522.02
555.28
571.52
565.11
531.91
470.10
382.27
274.63
156.22
36.28
-76.47
-176.98
-254.28
-291.53
-280.98
-231.59
-163.86
-94.96
-39.00
7.79
48.93
85.98
117.72
140.92
151.93
145.08
118.82
76.41
25.33
-28.72
-81.95
-133.25
-183.69
-234.30
-290.41
-354.12
-422.44
-488.26
-546.49
-594.95
-634.30
-667.17
-657.14
-586.49
-467.01
-331.21
-206.18
-103.40
-22.55
40.85
90.76
130.63
157.77
171.49
175.92
178.74
185.76
198.74
216.68
235.69
251.73
257.37
248.58
226.67
196.79
163.96
129.07
94.91
62.77
33.37
4.18
-26.58
-58.13
-86.94
-108.09
-116.61
-108.71
-84.11
-46.57
-4.85
31.39
55.49
65.96
65.79
60.24
54.05
49.26
45.58
41.31
35.48
28.88
23.44
20.75
20.98
23.00
24.80
24.67
22.13
17.96
13.68
10.81
10.17
11.55
13.92
15.78
15.99
14.24
11.21
8.10
6.12
5.93
7.41
9.65
11.33
11.27
8.90
4.49
-1.08
-6.75
-11.67
-15.57
-18.74
-21.85
-25.34
-29.05
-32.03
-32.77
-29.69
-21.96
-9.88
4.93
20.08
33.17
42.49
47.60
49.21
48.86
48.36
49.55
53.79
61.41
70.97
78.92
80.50
71.58
50.84
21.04
-11.54
-39.47
-57.38
-63.88
-61.72
-55.87
-50.91
-49.28
-50.84
-53.68
-55.30
-53.71
-47.84
-37.63
-23.99
-8.61
6.29
18.64
26.93
30.67
30.38
27.51
23.83
20.99
19.81
19.86
19.52
16.53
8.90
-4.06
-21.21
-39.90
-56.74
-68.63
-73.68
-71.45
-62.92
-50.28
-36.39
-24.15
-16.01
-13.40
-15.91
-22.31
-30.24
-36.99
-40.49
-40.10
-36.80
-32.59
-29.35
-27.74
-26.91
-24.77
-19.47
-10.60
0.18
9.86
15.31
14.98
9.76
2.61
-2.43
-2.06
5.07
17.91
33.85
49.82
63.75
75.09
84.55
93.47
103.01
113.84
126.34
140.89
157.97
177.78
199.81
222.64
244.55
264.24
281.52
297.08
311.56
324.34
332.85
333.09
321.08
294.76
255.02
205.69
152.20
99.99
53.16
13.93
-16.80
-38.98
-52.70
-58.29
-56.55
-49.08
-38.21
-26.50
-16.20
-8.64
-4.12
-2.37
-3.02
-6.02
-11.68
-20.33
-31.91
-45.79
-60.81
-75.79
-89.78
-102.26
-113.01
-121.81
-128.38
-132.47
-134.06
-133.46
-131.34
-128.34
-124.86
-121.06
-116.88
-112.54
-108.52
-105.71
-104.92
-106.48
-109.94
-114.11
-117.62
-119.43
-119.36
-118.01
-116.38
-115.16
-114.20
-112.57
-108.92
-102.33
-92.94
-82.01
-71.50
-63.25
-58.34
-56.59
-56.80
-57.31
-56.69
-54.22
-50.07
-45.03
-40.09
-36.01
-33.08
-31.29
-30.57
-30.97
-32.68
-35.81
-40.26
-45.86
-52.65
-61.13
-72.28
-87.00
-105.41
-126.32
-147.35
-165.68
-179.01
-186.30
-187.66
-184.14
-176.95
-167.24
-156.13
-144.62
-133.69
-123.80
-114.54
-104.49
-91.88
-75.55
-55.99
-35.76
-18.57
-7.58
-3.77
-5.34
-8.43
-8.89
-4.00
6.60
21.21
37.38
53.11
67.49
80.37
91.54
100.00
103.87
101.08
90.31
72.12
48.93
24.51
2.41
-15.51
-29.85
-43.13
-58.20
-76.43
-96.66
-115.65
-129.71
-136.42
-135.69
-129.31
-119.69
-108.37
-95.39
-79.80
-60.74
-38.41
-14.25
9.70
31.72
51.03
67.86
82.88
96.52
108.63
118.63
125.98
130.73
133.70
136.05
138.91
142.84
147.82
153.32
158.66
163.20
166.63
168.99
170.55
171.63
172.31
172.24
170.63
166.49
159.09
148.37
135.13
120.74
106.63
93.64
81.90
70.88
60.04
49.43
40.05
33.71
32.39
37.32
48.28
63.50
80.13
95.21
106.65
113.73
117.19
118.42
118.67
118.32
116.71
112.52
104.39
91.63
74.56
54.87
35.30
18.91
8.10
3.92
5.69
11.59
19.45
27.64
35.44
42.66
49.00
53.53
54.81
51.62
43.87
33.06
21.79
12.80
7.62
5.95
5.77
4.14
-1.51
-12.40
-27.87
-45.65
-62.58
-75.81
-83.56
-85.61
-83.09
-77.85
-71.46
-64.69
-57.34
-48.63
-37.94
-25.40
-12.10
0.24
9.89
15.56
16.67
13.09
5.08
-6.81
-21.63
-37.70
-52.93
-65.23
-73.52
-78.13
-80.83
-83.90
-88.91
-95.76
-102.62
-106.80
-106.04
-99.61
-88.40
-74.43
-59.63
-45.22
-31.60
-18.89
-7.54
1.64
8.03
11.91
14.65
18.45
25.12
35.15
47.15
58.48
66.29
68.70
65.27
56.76
44.45
29.44
12.40
-6.56
-27.67
-51.72
-79.89
-113.35
-152.39
-195.40
-238.44
-275.71
-301.29
-311.12
-304.41
-283.69
-253.49
-218.57
-182.38
-146.63
-111.77
-78.03
-46.08
-17.18
7.21
26.17
39.71
48.93
55.59
61.52
67.88
75.04
82.87
91.06
99.72
109.16
119.47
130.08
139.45
145.51
146.36
141.01
129.66
113.58
94.54
74.33
54.45
36.19
20.79
9.36
2.79
1.40
4.62
10.98
18.25
23.98
26.11
23.70
17.13
8.11
-0.78
-6.79
-7.68
-2.43
8.38
22.59
37.08
48.64
55.10
55.99
52.61
47.27
42.16
38.44
35.71
32.49
26.98
18.08
5.97
-7.89
-21.15
-31.52
-37.37
-38.31
-35.13
-29.68
-24.18
-20.57
-19.92
-22.06
-25.70
-28.77
-29.15
-25.27
-16.61
-3.79
11.57
27.27
41.21
51.75
58.28
61.15
61.35
59.86
57.10
52.56
44.95
32.91
15.60
-6.85
-33.34
-62.24
-91.80
-120.34
-146.40
-168.81
-186.76
-200.19
-209.93
-217.59
-225.03
-233.34
-242.10
-248.93
-250.12
-241.85
-221.61
-189.09
-146.36
-97.22
-46.13
2.82
46.38
82.40
109.73
128.20
138.61
142.77
142.97
141.18
138.38
134.28
127.86
118.23
105.38
90.23
74.36
59.16
45.49
33.55
23.15
14.11
6.28
-0.64
-7.26
-14.51
-23.24
-33.79
-45.79
-58.10
-69.11
-76.96
-79.83
-76.29
-65.71
-48.56
-26.45
-1.84
22.61
44.62
62.90
77.08
87.46
94.60
98.86
100.27
98.54
93.21
83.98
71.06
55.43
38.91
23.81
12.21
5.16
2.17
1.27
-0.17
-4.31
-11.97
-22.17
-32.65
-40.63
-43.71
-40.32
-30.05
-13.60
7.27
30.02
51.74
69.88
82.89
90.53
93.73
93.93
92.40
89.64
85.33
78.43
67.75
52.44
32.40
8.39
-17.94
-44.40
-68.76
-89.27
-105.13
-116.58
-124.57
-130.25
-134.50
-137.52
-138.87
-137.72
-133.30
-125.16
-113.50
-99.04
-83.00
-66.67
-51.09
-36.73
-23.72
-12.10
-2.04
6.46
14.19
23.12
36.34
56.85
86.02
122.36
161.57
197.95
226.65
245.29
254.30
255.79
251.88
243.52
230.42
212.03
188.66
162.05
135.00
110.36
90.12
74.82
63.62
55.05
47.86
41.76
37.54
36.71
40.61
49.53
62.19
75.86
87.15
93.01
91.70
83.25
69.29
52.45
35.47
20.46
8.62
0.38
-4.25
-5.53
-3.98
-0.68
2.61
3.84
1.35
-5.13
-14.11
-22.79
-28.31
-29.06
-25.39
-19.33
-13.39
-9.45
-8.22
-9.28
-11.78
-15.03
-18.74
-23.14
-28.97
-37.54
-50.78
-70.86
-99.27
-135.70
-177.18
-218.27
-252.41
-273.77
-278.90
-267.57
-242.48
-208.25
-170.03
-132.57
-99.47
-72.95
-53.96
-42.30
-36.99
-36.94
-40.98
-47.76
-55.34
-61.32
-63.75
-62.03
-57.14
-50.85
-45.09
-40.52
-36.15
-30.12
-21.02
-9.00
4.54
18.22
31.92
45.97
60.76
75.70
89.07
98.56
102.22
99.44
91.59
81.62
71.70
63.09
55.50
47.57
37.18
21.62
-1.71
-34.18
-67.54
-90.89
-94.29
-74.74
-36.48
13.23
67.40
120.66
169.52
212.28
247.43
274.71
294.39
306.68
312.16
311.59
305.72
295.44
282.02
266.05
247.66
226.37
202.69
177.68
152.14
126.25
99.66
71.72
41.30
8.07
-26.46
-58.39
-81.82
-90.88
-83.19
-61.74
-34.33
-11.42
-2.26
-11.65
-38.56
-76.58
-116.09
-147.83
-165.49
-166.54
-152.30
-126.78
-95.06
-62.23
-31.49
-2.90
24.31
50.40
75.30
98.73
120.70
141.50
159.26
170.96
175.06
167.85
144.49
102.78
44.09
-27.39
-106.41
-191.91
-283.11
-372.79
-454.79
-525.38
-579.27
-611.00
-616.64
-595.56
-556.86
-511.87
-462.40
-411.88
-366.66
-328.65
-296.81
-269.31
-245.63
-234.27
-242.62
-262.96
-289.32
-322.67
-363.16
-410.53
-462.65
-469.18
-396.20
-305.31
-221.84
-129.33
-29.13
71.71
163.87
238.69
290.01
307.87
297.31
276.45
261.21
258.14
269.50
291.82
317.61
338.73
344.47
330.62
307.08
282.86
259.82
238.08
216.83
195.60
175.05
153.23
129.19
106.80
87.35
67.91
46.36
22.47
-2.11
-24.62
-44.60
-60.70
-70.30
-72.76
-70.18
-64.60
-57.49
-49.51
-40.88
-31.94
-23.13
-14.67
-7.26
-2.27
-0.74
-3.10
-9.22
-18.58
-30.05
-42.62
-55.77
-69.08
-82.02
-94.02
-104.30
-111.82
-118.44
-124.51
-129.98
-134.71
-138.29
-140.17
-139.81
-136.90
-131.54
-124.22
-115.12
-104.36
-91.85
-77.13
-59.69
-39.34
-16.64
7.10
30.00
50.71
68.60
84.23
99.28
116.02
136.27
160.66
188.33
217.29
245.44
271.29
294.44
315.48
335.54
355.97
378.11
403.05
430.97
460.22
486.33
502.47
501.36
478.55
435.02
377.67
316.69
261.57
217.62
184.91
160.11
139.59
121.75
107.22
97.10
91.00
86.17
78.55
64.74
43.72
17.08
-11.68
-38.87
-61.96
-80.10
-94.08
-105.98
-118.21
-132.68
-150.08
-169.52
-188.92
-205.62
-217.23
-222.37
-221.05
-214.48
-204.45
-192.74
-180.59
-168.67
-157.14
-145.92
-134.71
-123.07
-110.30
-95.75
-79.34
-62.12
-46.35
-34.77
-29.24
-29.70
-34.07
-39.32
-43.16
-45.25
-47.08
-50.84
-57.72
-67.25
-77.68
-87.15
-94.88
-101.39
-107.99
-115.81
-125.20
-135.81
-146.94
-157.93
-168.09
-176.48
-181.76
-182.40
-177.20
-165.66
-148.19
-125.97
-100.83
-74.85
-50.12
-28.45
-10.92
2.32
12.22
20.42
28.65
38.00
48.57
59.57
69.80
78.24
84.45
88.68
91.45
93.34
94.68
95.66
96.53
97.76
100.08
104.32
111.15
120.92
133.68
149.25
167.25
186.88
206.78
225.12
239.98
249.93
254.82
255.90
255.23
254.59
254.38
253.09
247.78
235.16
213.05
181.62
143.63
103.79
67.40
38.89
20.51
11.77
9.62
9.66
7.61
0.50
-12.85
-32.31
-56.93
-85.54
-117.16
-151.03
-186.35
-222.39
-258.68
-294.91
-330.50
-363.88
-391.55
-409.11
-412.70
-400.28
-372.34
-331.48
-281.43
-225.99
-168.68
-111.82
-58.59
-12.86
22.13
45.69
60.66
72.67
87.82
110.26
142.41
182.67
226.80
270.22
310.16
346.07
378.55
407.87
433.44
455.89
473.78
483.57
480.61
461.03
423.53
370.10
305.71
224.17
130.48
37.60
-39.23
-90.55
-115.68
-119.69
-109.07
-89.50
-65.10
-36.85
-6.58
22.68
47.63
66.21
78.33
85.36
89.01
89.94
90.31
90.57
89.38
84.34
73.47
56.14
33.01
5.53
-24.65
-55.13
-84.77
-113.83
-143.48
-174.82
-208.30
-243.66
-280.05
-315.92
-348.48
-374.67
-391.82
-398.48
-395.10
-384.29
-370.31
-357.78
-349.86
-346.82
-346.33
-344.54
-337.94
-324.85
-305.76
-282.83
-258.45
-234.01
-209.54
-184.17
-157.05
-128.42
-99.87
-73.58
-51.18
-32.61
-15.81
2.53
25.70
55.51
91.29
129.67
165.32
191.72
202.69
193.79
163.43
114.07
52.60
-10.30
-62.42
-93.19
-96.87
-73.97
-30.81
22.69
76.24
121.96
155.93
177.98
190.33
195.66
195.79
191.20
181.56
166.98
148.67
129.15
111.30
97.11
86.89
79.28
72.27
64.29
55.13
45.45
35.98
26.77
17.05
5.81
-7.29
-21.38
-34.45
-44.17
-48.98
-48.99
-46.07
-43.16
-43.17
-47.62
-55.80
-64.93
-71.23
-71.42
-63.90
-49.38
-30.47
-10.72
6.28
17.67
21.54
17.01
4.16
-16.09
-42.05
-71.74
-103.13
-134.64
-165.06
-193.36
-218.40
-238.99
-254.15
-263.34
-266.80
-265.42
-260.61
-253.89
-246.63
-239.87
-234.23
-229.97
-226.86
-224.16
-220.79
-215.48
-206.99
-194.37
-177.21
-155.73
-130.87
-104.10
-77.04
-51.17
-27.42
-5.98
13.74
32.56
51.32
70.33
89.42
108.01
125.34
140.84
153.84
163.62
169.10
169.12
162.88
150.26
132.02
109.78
85.90
62.87
42.77
26.86
15.56
8.67
5.42
4.70
5.37
6.66
8.55
11.83
18.02
28.82
45.78
69.16
97.61
128.52
159.11
187.60
213.74
238.09
260.71
281.15
296.94
304.80
302.69
291.71
276.08
261.19
250.73
244.91
243.30
243.89
245.08
246.81
250.76
259.02
272.44
289.69
308.02
328.26
350.89
375.43
399.64
420.64
436.06
445.11
448.79
449.55
454.78
468.39
488.76
508.01
515.98
504.30
469.62
414.89
319.19
180.95
16.02
-146.66
-280.57
-372.38
-423.31
-442.61
-441.08
-428.05
-403.89
-371.51
-335.06
-300.11
-271.07
-250.97
-241.11
-240.54
-246.69
-253.34
-257.57
-258.67
-259.31
-263.19
-274.06
-294.82
-325.42
-363.85
-405.27
-444.17
-473.57
-493.76
-499.59
-488.05
-462.83
-430.16
-397.01
-369.26
-344.99
-321.87
-295.21
-258.91
-206.52
-142.17
-79.14
-26.25
11.28
30.65
34.53
31.76
35.20
55.38
94.30
150.04
216.21
281.80
326.03
330.50
288.28
208.02
119.97
34.80
-45.07
-119.70
-191.93
-259.48
-316.94
-357.65
-376.58
-372.82
-351.46
-316.32
-269.38
-212.27
-146.37
-73.74
2.64
79.00
151.34
214.51
266.82
307.84
336.27
350.21
347.53
327.54
292.00
245.28
192.67
141.72
99.85
71.97
60.62
63.25
72.67
79.93
78.96
70.14
62.02
67.05
95.08
150.78
228.74
316.00
397.29
461.04
502.16
521.88
524.29
513.64
496.81
479.24
464.20
451.59
437.86
416.97
382.40
329.92
242.02
118.00
-27.24
-168.61
-283.94
-363.83
-411.15
-434.63
-442.63
-441.08
-430.70
-412.64
-388.67
-360.56
-328.66
-291.49
-248.21
-200.19
-152.08
-107.43
-69.48
-39.57
-17.66
-3.74
1.28
-5.76
-27.70
-64.07
-107.05
-144.10
-162.45
-154.99
-123.54
-77.10
-28.95
10.49
36.85
52.85
63.95
74.57
86.58
94.46
96.52
88.94
71.03
43.99
11.09
-23.97
-56.91
-84.02
-103.02
-112.50
-112.85
-104.02
-85.93
-58.38
-22.86
16.58
52.98
78.49
87.67
79.09
56.72
27.94
0.09
-23.74
-42.46
-60.66
-83.15
-111.23
-142.29
-169.95
-186.90
-188.28
-173.81
-147.74
-115.77
-82.15
-47.22
-8.91
35.72
87.45
143.87
200.84
249.57
284.34
303.48
309.18
304.53
291.22
268.20
232.28
180.65
113.10
33.66
-50.69
-132.21
-205.16
-266.43
-315.41
-353.49
-381.58
-399.11
-402.81
-387.60
-348.24
-282.50
-192.78
-86.55
23.64
125.47
209.18
270.55
310.46
332.95
342.10
339.75
325.71
295.65
246.57
177.90
93.05
-0.55
-93.33
-176.20
-242.94
-289.67
-319.45
-335.30
-340.24
-335.32
-319.08
-288.52
-240.78
-175.23
-92.95
-3.17
84.70
161.01
218.91
256.30
275.50
281.40
266.60
248.32
222.46
185.61
135.32
72.21
1.05
-70.50
-133.98
-182.44
-209.24
-213.80
-194.56
-151.01
-84.67
0.09
94.56
186.46
262.24
313.85
337.54
338.83
327.73
313.41
301.16
290.48
275.90
249.48
207.20
147.45
73.38
-9.63
-95.91
-178.12
-248.47
-301.41
-336.56
-355.81
-363.89
-365.51
-364.27
-362.22
-357.01
-343.21
-314.97
-269.37
-203.85
-118.52
-17.93
90.80
184.97
240.35
247.30
223.11
183.51
140.85
103.33
72.80
49.36
28.55
5.78
-22.24
-56.70
-97.78
-141.07
-179.55
-206.04
-214.66
-202.57
-167.54
-109.18
-30.74
58.46
147.15
224.52
282.61
317.98
330.73
324.02
301.16
263.41
209.37
138.87
54.99
-35.74
-124.43
-202.72
-264.21
-306.02
-328.91
-335.72
-328.23
-305.82
-266.12
-207.01
-129.50
-38.68
56.76
146.99
223.90
283.58
326.08
353.40
366.92
365.46
345.69
304.07
239.61
155.51
59.26
-38.99
-128.72
-201.66
-253.94
-285.76
-299.83
-298.39
-281.47
-246.66
-191.33
-115.56
-24.26
72.76
163.52
237.41
287.96
313.49
315.61
296.97
259.52
204.41
133.14
49.11
-41.63
-130.74
-209.20
-269.84
-308.98
-327.34
-328.32
-315.47
-290.14
-250.88
-195.27
-122.97
-38.56
48.47
126.18
184.88
220.46
234.97
234.08
222.81
202.77
172.00
127.74
69.82
2.48
-66.46
-128.83
-178.78
-213.73
-233.10
-236.01
-219.84
-181.45
-120.00
-39.18
51.77
140.57
215.27
267.63
294.48
296.75
277.15
238.65
183.93
115.96
39.13
-40.52
-116.16
-181.55
-232.25
-265.71
-280.34
-274.56
-246.76
-196.49
-125.92
-41.14
48.82
134.10
206.78
262.39
299.98
319.97
322.53
306.65
270.77
214.67
140.71
54.29
-37.45
-127.03
-208.00
-275.64
-327.61
-363.74
-385.48
-394.56
-391.33
-374.09
-339.39
-284.17
-208.63
-118.16
-22.65
66.28
139.44
192.83
227.92
249.34
261.33
265.10
258.66
238.68
203.04
152.70
91.86
26.33
-38.52
-99.04
-153.09
-198.30
-230.47
-243.72
-232.51
-194.51
-132.96
-57.05
20.76
88.24
137.32
165.54
175.36
171.88
160.46
144.97
127.16
107.06
83.75
56.30
24.31
-11.53
-49.13
-84.70
-112.93
-127.29
-121.58
-91.55
-36.73
38.30
124.16
208.29
278.04
323.28
338.97
325.68
288.41
234.36
170.91
103.75
36.70
-27.97
-88.73
-143.98
-191.85
-230.85
-259.72
-277.00
-280.24
-265.89
-230.29
-171.84
-93.17
-1.70
91.10
173.21
235.23
273.05
287.80
283.95
266.44
238.16
199.54
149.37
87.16
14.55
-64.07
-142.29
-213.34
-272.01
-315.66
-344.23
-359.01
-360.58
-347.86
-318.28
-269.12
-200.00
-114.72
-21.19
70.56
151.15
214.77
259.91
288.14
302.11
303.09
290.28
261.51
215.32
152.47
76.69
-5.68
-87.34
-161.47
-223.75
-272.51
-307.69
-328.76
-333.24
-316.77
-275.20
-207.88
-119.68
-21.13
74.69
156.49
218.00
258.75
281.88
290.53
284.93
262.41
219.68
156.20
76.25
-11.63
-97.04
-170.83
-227.46
-265.77
-286.83
-291.85
-280.26
-249.78
-198.68
-128.01
-42.93
47.75
133.61
205.45
257.05
285.79
292.15
278.51
248.24
205.53
154.71
100.09
45.11
-8.08
-58.71
-106.67
-151.95
-193.55
-228.76
-253.06
-260.70
-246.28
-206.88
-143.78
-62.74
27.01
115.74
195.32
260.57
308.98
339.39
350.70
342.04
313.62
267.79
209.28
143.97
77.12
11.94
-50.45
-110.20
-167.23
-220.53
-268.25
-308.12
-337.76
-354.60
-355.44
-336.97
-296.76
-234.80
-154.57
-63.20
30.15
116.22
187.27
238.45
267.42
274.40
261.91
234.19
196.34
153.24
108.20
62.67
16.83
-29.35
-75.22
-119.46
-160.63
-197.60
-228.93
-251.82
-261.28
-250.84
-215.28
-153.59
-71.02
21.61
110.77
184.36
234.78
259.78
261.87
245.65
215.91
176.37
129.36
76.48
19.24
-40.42
-99.75
-154.53
-199.59
-229.36
-239.00
-225.70
-189.35
-132.77
-61.43
16.97
93.80
160.40
209.68
237.57
244.10
232.98
210.16
181.45
150.32
117.61
82.18
42.86
0.09
-43.95
-86.61
-125.89
-160.96
-191.16
-214.27
-226.26
-222.35
-198.81
-155.28
-95.59
-26.79
42.60
104.88
154.65
189.33
208.72
214.31
208.18
192.28
168.02
136.21
97.29
51.90
1.33
-52.16
-105.42
-154.77
-196.20
-225.90
-241.01
-240.28
-224.10
-194.30
-153.09
-102.65
-45.47
14.87
73.20
123.16
158.87
177.24
178.91
168.02
150.06
129.22
106.70
80.84
48.66
7.97
-40.90
-94.85
-148.29
-194.58
-227.20
-241.05
-233.18
-203.31
-153.71
-88.75
-14.48
62.23
133.96
193.40
234.45
253.34
249.81
227.16
191.60
149.87
107.46
66.96
28.08
-10.90
-51.19
-91.99
-130.11
-160.74
-179.25
-182.48
-169.47
-141.12
-99.41
-46.82
13.60
77.41
138.48
189.31
223.01
235.45
226.87
202.00
167.86
131.11
95.80
62.64
29.63
-5.86
-45.21
-87.79
-130.72
-170.10
-202.03
-223.43
-232.48
-228.76
-212.73
-185.29
-147.58
-100.80
-46.80
11.13
67.77
116.69
151.42
167.55
164.41
145.17
116.10
84.13
54.75
30.70
12.22
-2.01
-13.84
-25.04
-36.93
-49.63
-61.83
-70.76
-72.76
-64.71
-45.59
-17.05
17.03
52.18
84.76
112.37
133.15
144.97
145.32
132.46
107.10
73.19
37.02
4.93
-19.18
-35.45
-47.41
-60.12
-77.64
-101.39
-130.30
-161.61
-192.17
-218.90
-239.01
-249.96
-249.31
-234.83
-205.02
-159.83
-100.99
-32.48
39.46
107.02
161.82
196.83
208.00
195.73
164.63
122.40
77.58
37.14
4.60
-20.47
-41.32
-62.35
-86.06
-111.89
-136.05
-153.48
-160.31
-155.58
-141.54
-121.51
-97.93
-70.24
-36.37
5.01
51.97
98.65
136.95
159.50
163.04
149.93
127.95
105.12
86.53
72.93
61.38
47.88
30.20
9.85
-7.55
-12.58
1.53
36.00
86.24
143.61
198.59
243.77
275.67
294.56
304.63
307.65
301.75
283.12
249.13
200.65
142.27
80.74
11.87
-59.33
-123.95
-174.50
-209.46
-231.19
-241.33
-239.46
-225.00
-200.35
-166.26
-127.74
-91.85
-64.23
-46.34
-35.50
-27.29
-18.24
-9.44
-0.35
8.60
17.59
28.58
44.93
69.05
99.98
132.70
159.90
175.87
176.24
159.24
125.91
79.92
27.05
-25.27
-68.79
-95.53
-99.27
-80.00
-44.20
-2.70
33.68
58.16
69.46
70.43
66.22
60.97
54.42
42.75
21.99
-8.86
-47.50
-90.12
-134.13
-177.37
-218.27
-256.43
-291.66
-322.48
-345.91
-359.52
-363.38
-360.72
-352.85
-337.54
-310.13
-264.98
-197.49
-106.44
3.81
127.94
242.08
319.78
350.59
343.75
317.34
286.54
259.42
237.37
218.43
199.18
180.11
164.24
152.74
144.73
137.96
131.62
125.13
118.87
112.40
106.36
101.46
95.15
84.65
67.83
45.81
21.48
-2.22
-24.24
-44.11
-62.24
-83.56
-108.25
-138.01
-172.36
-209.43
-246.77
-282.44
-314.07
-323.46
-300.46
-245.88
-172.69
-95.83
-25.58
33.82
81.95
120.75
152.90
176.37
193.17
204.47
212.44
219.24
226.02
232.56
237.79
240.18
236.08
224.68
205.49
180.14
151.25
121.41
92.38
65.08
39.87
15.57
-8.28
-31.93
-54.12
-73.29
-88.11
-98.22
-104.20
-107.21
-109.37
-112.28
-117.37
-124.98
-134.99
-146.89
-159.94
-173.01
-184.89
-194.94
-203.27
-211.25
-220.61
-232.95
-248.66
-266.59
-283.94
-297.26
-303.57
-301.33
-291.02
-274.45
-254.15
-232.33
-210.60
-190.14
-171.65
-156.01
-143.65
-134.27
-126.04
-116.17
-101.96
-82.10
-57.97
-32.97
-11.46
3.52
11.42
14.66
17.31
23.22
34.42
50.18
67.50
81.77
88.20
83.13
65.38
36.96
2.97
-29.67
-54.43
-66.73
-65.19
-50.92
-26.29
6.30
45.07
88.35
134.03
179.21
220.94
257.13
287.30
312.63
335.13
356.91
379.41
402.99
426.61
447.65
462.08
465.26
453.22
424.23
379.86
324.74
265.33
208.00
157.65
116.69
85.44
62.62
45.95
32.61
19.48
3.68
-16.67
-41.74
-70.02
-98.92
-126.52
-152.57
-179.01
-209.37
-247.33
-295.13
-352.43
-415.71
-478.56
-532.92
-570.73
-585.96
-576.39
-543.91
-494.00
-433.84
-370.27
-308.17
-249.86
-195.71
-145.03
-97.05
-50.94
-5.85
38.65
82.26
123.79
161.68
194.18
219.90
237.91
248.07
251.34
248.65
240.89
229.31
216.34
204.87
197.34
194.40
194.98
197.43
198.83
196.26
188.85
179.13
171.44
169.81
175.44
186.54
200.38
211.81
214.80
205.72
185.94
160.80
137.28
121.22
116.03
123.61
139.78
154.64
157.36
141.53
106.16
54.76
-7.16
-85.30
-169.16
-239.20
-281.78
-296.77
-289.93
-267.19
-227.22
-167.48
-87.59
12.10
127.30
244.33
337.22
384.94
380.63
335.43
269.74
201.91
143.38
95.74
54.48
15.55
-19.29
-44.62
-56.81
-54.75
-40.04
-14.67
18.16
53.87
87.71
116.46
137.46
148.19
145.61
128.78
101.02
68.14
35.83
8.16
-12.32
-24.91
-30.52
-31.18
-29.33
-27.21
-27.07
-31.00
-39.95
-52.94
-67.73
-82.00
-94.27
-104.52
-114.37
-126.73
-145.05
-171.82
-207.16
-248.38
-290.20
-326.15
-349.90
-357.81
-350.00
-329.92
-302.97
-275.46
-254.08
-244.67
-250.77
-270.49
-296.75
-319.04
-326.94
-314.05
-282.33
-242.89
-211.83
-204.21
-225.46
-270.94
-328.53
-383.10
-419.68
-427.85
-404.07
-351.07
-276.89
-188.47
-92.67
3.81
95.69
181.33
261.23
335.93
405.15
467.06
524.21
579.65
634.20
670.52
671.17
631.30
561.92
492.20
425.76
363.51
307.44
256.74
214.02
183.27
166.11
159.33
155.38
144.44
123.69
96.12
68.36
48.47
43.40
55.20
79.64
107.86
129.15
138.66
135.47
120.67
96.10
63.85
25.64
-17.19
-63.73
-113.80
-165.01
-214.77
-261.10
-302.01
-334.99
-357.16
-366.18
-361.25
-344.15
-317.51
-284.95
-250.44
-217.36
-188.21
-164.50
-146.92
-135.16
-128.20
-123.69
-118.95
-111.93
-101.92
-90.14
-78.72
-69.78
-64.10
-60.57
-56.71
-49.91
-38.74
-23.94
-8.32
4.70
12.74
15.57
15.24
15.37
19.28
28.76
42.97
58.68
71.21
75.90
69.18
49.48
18.28
-19.75
-57.11
-85.98
-100.38
-97.85
-79.59
-49.32
-11.64
29.93
73.70
119.70
166.93
212.11
249.77
274.00
280.48
267.64
237.61
196.06
151.49
111.46
80.23
57.92
41.08
24.16
0.42
-35.51
-85.66
-139.51
-180.39
-193.88
-178.06
-142.58
-99.19
-56.28
-16.77
20.24
56.70
92.47
124.78
150.16
167.14
177.50
183.86
189.93
197.89
208.13
218.39
224.78
223.79
214.06
196.97
174.24
148.19
120.73
93.30
65.96
37.77
7.06
-28.30
-63.15
-95.08
-122.83
-146.56
-167.65
-188.58
-211.96
-239.18
-268.72
-296.07
-316.16
-324.26
-318.33
-300.14
-274.44
-247.14
-222.74
-202.79
-186.10
-171.23
-157.12
-143.87
-132.45
-123.54
-117.02
-111.85
-107.09
-102.63
-99.45
-98.54
-99.63
-101.09
-100.41
-95.38
-85.20
-71.06
-55.84
-42.72
-33.65
-28.41
-25.16
-21.35
-15.06
-5.31
7.22
20.32
31.10
36.72
35.27
26.22
11.06
-6.63
-20.64
-25.36
-17.97
1.05
28.20
58.54
86.36
106.46
115.81
116.39
111.60
105.04
100.51
101.62
112.14
133.45
163.98
200.79
244.09
292.08
340.45
384.49
420.90
450.79
476.45
500.14
523.63
551.39
581.70
605.97
613.13
594.43
549.67
484.07
406.71
299.14
169.06
43.56
-50.52
-98.34
-116.22
-117.41
-109.49
-97.90
-86.32
-73.73
-62.64
-58.89
-68.23
-93.35
-130.58
-175.11
-222.77
-270.02
-310.46
-340.89
-361.62
-374.59
-381.76
-382.76
-378.14
-369.70
-359.15
-345.02
-326.46
-303.84
-278.27
-250.94
-221.61
-190.61
-158.92
-127.70
-96.71
-66.30
-37.44
-11.44
10.30
27.15
38.09
41.81
37.49
25.63
7.68
-14.17
-37.64
-60.86
-82.33
-101.36
-118.07
-133.14
-147.95
-164.61
-185.32
-211.47
-242.42
-274.45
-301.12
-315.14
-311.36
-289.22
-253.77
-214.05
-179.42
-155.81
-143.58
-137.94
-132.09
-120.62
-101.68
-76.96
-49.59
-22.01
5.47
34.11
65.31
99.01
133.38
165.55
192.83
214.02
229.41
240.32
247.93
252.67
253.92
250.66
242.34
229.34
213.37
197.01
182.78
172.32
166.02
163.02
161.73
160.62
158.39
154.46
148.80
141.46
132.01
119.03
99.84
70.77
28.22
-30.27
-104.67
-191.87
-285.42
-376.10
-453.29
-506.86
-529.14
-516.63
-470.79
-397.91
-307.64
-210.75
-116.85
-33.05
36.34
89.56
126.72
149.72
161.64
166.80
170.20
176.69
189.57
209.55
235.04
263.13
291.44
318.19
342.70
365.55
388.53
413.90
443.40
477.57
514.69
551.64
581.72
596.74
590.64
562.59
517.47
463.65
410.02
362.87
326.52
300.05
279.71
262.58
248.66
239.67
235.95
235.14
232.26
223.71
204.24
168.79
115.37
46.29
-33.32
-118.46
-204.95
-303.98
-406.85
-493.29
-546.65
-563.97
-552.46
-521.55
-480.13
-434.50
-388.40
-341.21
-293.39
-247.01
-204.08
-165.20
-128.72
-94.51
-63.46
-37.06
-15.01
1.20
8.66
5.08
-12.32
-38.98
-69.76
-99.92
-125.65
-143.24
-151.56
-152.12
-148.16
-142.90
-138.57
-136.37
-134.97
-130.96
-119.50
-97.91
-66.62
-29.19
9.93
46.87
77.76
99.06
106.79
97.94
71.82
31.92
-14.21
-57.54
-91.30
-115.64
-133.19
-148.54
-164.19
-178.88
-188.28
-187.67
-174.64
-150.33
-118.93
-85.19
-53.40
-26.21
-5.21
9.11
17.09
20.01
20.26
20.47
23.48
30.95
43.29
59.18
75.63
88.50
93.72
89.19
75.49
56.41
36.18
21.17
14.74
14.93
15.88
11.47
-0.26
-17.10
-34.30
-47.42
-55.13
-58.37
-59.55
-60.96
-63.52
-65.30
-64.78
-62.72
-61.93
-67.36
-81.01
-102.13
-128.04
-154.49
-175.10
-185.49
-184.70
-174.98
-162.15
-147.83
-130.68
-107.82
-75.37
-27.66
38.13
120.57
215.46
306.93
384.28
442.02
478.16
474.56
424.39
334.04
220.15
117.92
29.79
-49.44
-121.32
-188.63
-247.57
-290.45
-311.60
-309.08
-284.88
-244.56
-196.33
-146.47
-102.51
-69.49
-45.85
-25.09
1.43
40.21
93.01
151.44
207.07
250.32
275.40
282.88
277.19
263.73
226.27
192.01
156.36
118.47
77.26
32.56
-13.81
-58.92
-99.41
-133.31
-157.90
-177.19
-190.31
-194.03
-182.76
-151.24
-98.60
-30.38
41.30
104.29
144.51
157.73
147.19
121.88
92.75
69.07
56.16
53.69
58.08
59.45
49.68
23.58
-18.58
-70.46
-121.25
-158.15
-170.74
-152.71
-106.03
-37.90
40.44
116.93
181.60
228.71
257.24
269.35
269.20
260.10
244.03
221.48
191.65
153.13
104.92
47.43
-17.10
-84.14
-147.67
-201.69
-241.44
-264.89
-272.91
-268.11
-253.19
-229.80
-198.12
-157.99
-111.04
-60.99
-13.12
28.00
60.11
83.66
99.86
108.53
106.65
89.25
52.93
-1.23
-66.18
-130.35
-180.90
-207.38
-203.52
-169.06
-109.60
-34.93
43.34
114.40
170.52
208.38
229.24
238.80
243.03
245.34
245.70
241.25
228.70
206.01
173.10
132.12
88.26
45.99
7.95
-24.10
-47.40
-56.93
-47.35
-16.83
31.20
90.20
149.98
199.86
232.49
245.54
241.22
223.04
192.64
135.52
47.75
-59.99
-165.84
-249.75
-304.19
-331.96
-339.64
-332.45
-310.61
-270.08
-210.02
-136.93
-63.20
-3.12
35.47
56.51
64.25
63.56
58.75
50.17
34.75
9.87
-26.04
-68.31
-109.42
-142.56
-162.34
-164.36
-146.93
-111.86
-63.11
-9.31
42.21
84.71
113.38
127.38
130.70
128.98
119.03
110.80
97.50
74.51
39.01
-8.63
-64.68
-122.60
-175.36
-212.33
-225.59
-225.34
-220.81
-217.90
-214.61
-208.22
-194.38
-168.46
-127.11
-70.30
-4.96
60.28
114.92
152.81
172.57
178.13
175.76
171.40
168.92
167.25
163.95
154.00
135.55
107.27
68.59
20.37
-32.72
-81.07
-113.21
-117.90
-90.31
-28.65
60.43
163.44
255.58
308.00
305.07
253.86
190.10
128.37
75.47
31.53
-9.03
-50.32
-95.40
-145.30
-200.86
-262.38
-330.30
-390.59
-426.83
-429.25
-400.57
-351.70
-292.69
-231.15
-171.98
-123.33
-83.66
-52.64
-29.79
-12.36
5.24
31.07
69.39
118.25
170.24
217.41
251.30
266.29
261.48
240.22
209.34
171.01
126.70
76.48
23.02
-28.63
-70.50
-93.27
-89.66
-55.58
1.42
70.43
138.55
195.56
235.74
258.19
265.08
245.71
218.03
177.68
123.35
56.82
-16.00
-86.92
-148.15
-195.27
-228.68
-250.82
-269.66
-288.30
-305.40
-315.28
-310.33
-284.18
-234.55
-164.25
-78.76
11.13
97.27
173.74
236.85
284.33
313.98
323.68
312.12
281.12
233.40
175.40
114.07
54.71
-0.22
-50.60
-97.29
-140.50
-178.36
-208.34
-225.93
-225.96
-204.13
-158.46
-90.96
-7.95
80.83
165.12
236.59
291.05
327.70
346.52
346.30
324.27
278.29
209.56
124.06
31.49
-58.15
-137.79
-204.84
-259.98
-304.90
-340.23
-365.26
-378.64
-379.44
-367.49
-342.77
-305.13
-254.52
-192.11
-121.41
-47.99
22.22
84.24
134.65
171.11
190.92
190.56
166.80
119.04
51.79
-24.45
-95.53
-147.54
-170.68
-161.96
-125.16
-69.14
-4.64
58.05
111.04
149.75
173.07
182.88
182.43
174.65
161.18
142.24
117.45
86.96
51.90
13.98
-25.42
-66.04
-107.70
-148.42
-182.73
-202.42
-199.01
-167.58
-109.26
-31.14
55.57
138.90
208.74
258.04
283.14
283.69
262.15
223.12
172.92
118.18
64.33
14.81
-29.35
-68.92
-105.36
-139.95
-172.51
-200.32
-217.94
-218.41
-195.75
-147.44
-76.52
8.90
97.88
179.77
246.79
294.82
322.65
330.31
318.19
286.82
237.92
175.26
104.69
32.84
-34.74
-94.89
-147.25
-193.36
-235.32
-274.15
-309.42
-339.40
-361.53
-372.88
-370.15
-350.03
-310.26
-251.17
-176.44
-93.08
-10.20
63.53
122.02
162.62
185.38
191.51
182.08
157.66
118.99
67.98
9.30
-49.44
-98.11
-126.42
-126.82
-97.29
-42.18
29.00
104.55
174.10
230.38
269.50
289.41
288.80
266.88
224.30
164.37
93.30
19.12
-50.53
-110.45
-159.14
-197.89
-228.91
-252.75
-266.57
-264.49
-239.90
-189.05
-113.53
-21.07
76.30
165.74
236.39
281.57
298.95
289.84
257.84
208.38
147.82
82.67
18.68
-40.39
-93.00
-139.43
-180.55
-216.15
-243.60
-257.85
-252.59
-222.69
-166.71
-88.60
2.19
92.55
169.22
222.01
245.97
241.82
214.76
172.21
121.98
70.64
22.57
-20.19
-57.97
-92.49
-125.92
-159.52
-192.61
-221.79
-241.33
-244.18
-224.31
-178.95
-110.22
-25.60
62.98
141.89
199.31
228.33
228.45
204.85
166.21
121.50
77.90
39.45
7.34
-19.23
-42.29
-64.22
-86.74
-109.37
-128.34
-136.86
-126.86
-92.23
-32.05
48.32
138.34
225.14
297.19
346.94
371.37
371.67
351.76
316.54
270.89
219.02
163.92
107.36
50.05
-7.84
-66.28
-124.93
-182.90
-238.60
-289.74
-333.74
-368.22
-391.73
-403.66
-403.68
-391.08
-364.44
-321.95
-262.82
-188.90
-105.04
-18.66
61.90
129.83
181.06
214.14
229.19
226.32
205.05
165.07
107.89
38.02
-37.25
-109.56
-172.19
-221.64
-256.77
-276.92
-279.79
-261.36
-217.77
-148.77
-59.94
37.68
130.53
207.15
261.30
292.69
304.76
301.79
287.12
262.63
229.53
189.18
143.29
93.44
40.61
-14.44
-69.94
-121.68
-162.42
-183.44
-177.68
-142.84
-83.19
-8.77
67.60
134.25
183.56
213.01
224.29
220.42
204.41
178.01
142.46
99.58
52.11
3.17
-44.75
-90.31
-133.72
-175.92
-217.68
-258.29
-294.46
-320.37
-328.67
-312.67
-268.57
-197.76
-107.03
-7.48
88.36
170.11
231.46
270.51
288.57
288.29
272.18
242.48
201.35
151.23
95.10
35.71
-24.72
-84.57
-142.26
-195.66
-241.23
-273.88
-287.56
-276.72
-238.59
-174.96
-92.97
-4.05
78.90
145.18
188.95
210.01
212.49
201.99
183.30
159.06
129.84
95.27
55.14
9.75
-40.00
-92.68
-146.13
-196.75
-239.39
-267.53
-274.83
-256.70
-212.30
-145.40
-63.72
22.53
103.12
169.60
216.66
242.23
247.32
235.17
209.96
175.87
136.09
92.41
45.53
-3.59
-52.41
-95.94
-127.17
-139.21
-127.66
-92.29
-37.02
31.25
104.76
176.51
240.57
291.93
325.78
338.05
326.14
290.27
233.82
162.79
84.42
5.34
-69.34
-136.36
-193.80
-240.88
-277.81
-305.23
-323.56
-331.84
-327.07
-304.65
-260.55
-193.82
-108.83
-15.46
73.41
145.41
192.37
211.96
207.11
183.52
146.88
101.08
48.01
-11.12
-74.43
-138.47
-198.44
-249.57
-288.24
-312.54
-321.37
-313.56
-287.32
-241.64
-177.94
-101.31
-20.09
56.50
120.88
168.76
198.92
211.84
207.72
186.37
147.83
93.66
28.15
-41.67
-106.76
-157.31
-184.51
-182.58
-150.32
-91.67
-15.05
68.71
148.58
215.13
261.77
284.76
283.34
259.51
217.75
164.14
105.26
46.80
-7.34
-54.94
-94.86
-126.23
-147.80
-157.93
-154.64
-136.02
-100.71
-48.92
16.77
90.34
162.52
222.37
259.77
268.29
247.07
201.11
139.40
72.48
9.42
-43.83
-85.29
-116.29
-140.08
-160.14
-178.93
-197.06
-212.93
-222.84
-221.74
-204.50
-167.56
-110.58
-37.27
44.79
125.71
195.38
245.96
273.25
277.19
260.75
228.52
185.41
136.01
84.68
35.43
-8.43
-45.30
-75.48
-100.88
-123.38
-143.24
-158.14
-164.07
-157.20
-136.19
-102.85
-61.33
-16.33
28.28
69.88
106.42
135.73
156.24
167.84
172.67
174.74
177.88
183.58
189.91
192.02
183.95
161.05
121.42
66.32
-0.25
-72.42
-143.07
-205.03
-252.80
-284.30
-301.65
-310.47
-317.06
-325.81
-337.24
-348.07
-352.75
-345.71
-323.25
-284.21
-230.05
-163.94
-90.48
-14.94
57.29
121.16
172.39
207.89
225.85
225.54
207.43
173.25
125.91
69.48
8.91
-50.16
-101.45
-138.89
-157.59
-155.37
-133.32
-95.93
-49.57
-0.62
46.19
87.84
122.30
147.30
160.19
159.09
144.46
119.67
90.33
62.42
39.76
23.13
10.72
0.21
-9.47
-17.12
-20.10
-15.92
-4.12
13.51
33.78
53.75
71.88
88.01
102.45
114.71
123.15
125.40
119.75
106.44
88.03
68.14
50.03
35.18
22.91
11.17
-1.46
-14.47
-24.90
-28.77
-23.53
-9.54
10.10
31.59
52.74
74.35
98.90
128.05
159.82
188.03
204.37
202.15
179.46
140.47
93.55
47.87
9.76
-19.20
-41.94
-62.82
-84.90
-107.79
-127.72
-140.16
-142.95
-137.55
-127.42
-115.19
-100.06
-78.29
-46.51
-5.47
38.36
74.83
94.95
95.59
81.03
60.54
43.83
36.30
37.51
41.93
42.21
32.68
11.51
-19.26
-55.57
-93.04
-129.71
-165.43
-201.21
-236.53
-267.54
-287.32
-288.41
-266.59
-222.70
-163.08
-95.76
-27.43
38.33
100.66
159.74
214.38
259.93
289.78
296.51
276.02
229.53
163.40
87.18
10.78
-57.62
-113.77
-156.03
-185.03
-200.73
-201.51
-185.68
-152.49
-103.18
-40.52
30.66
105.29
170.28
210.43
218.34
197.73
159.72
116.04
78.67
47.59
20.18
-7.25
-37.02
-69.84
-106.51
-146.13
-187.88
-229.56
-268.32
-300.14
-322.22
-332.81
-330.46
-313.72
-280.25
-227.40
-153.79
-62.25
39.74
140.39
227.72
293.71
336.04
357.66
363.58
357.71
340.61
310.40
265.05
205.08
134.62
59.95
-11.86
-74.47
-121.94
-149.01
-151.20
-126.09
-75.08
-4.66
73.95
147.47
204.12
236.90
244.43
229.79
198.12
154.71
103.59
47.59
-10.77
-68.78
-123.18
-170.44
-207.41
-230.72
-236.93
-224.26
-193.68
-149.91
-100.41
-53.25
-14.56
12.55
29.96
42.84
56.52
73.67
93.16
110.72
120.57
116.87
94.17
51.25
-8.32
-77.41
-147.82
-211.85
-263.84
-300.47
-321.35
-330.04
-329.55
-321.19
-304.47
-277.97
-239.38
-186.20
-117.21
-26.13
75.29
163.53
219.04
237.96
229.35
205.66
176.76
148.04
121.48
96.31
74.65
59.55
53.79
57.60
67.81
80.00
90.40
97.33
100.81
104.38
113.58
131.55
158.08
189.21
219.35
243.87
260.36
267.81
266.39
256.92
239.75
215.04
182.74
143.14
97.51
47.48
-5.06
-58.53
-109.61
-153.17
-183.05
-195.05
-189.31
-169.99
-143.63
-116.56
-95.52
-84.35
-83.24
-88.92
-97.03
-104.11
-108.12
-108.21
-104.47
-101.29
-104.25
-118.10
-144.61
-183.57
-233.94
-293.90
-360.47
-408.78
-417.00
-377.31
-302.10
-212.93
-127.22
-53.53
6.64
55.34
96.10
129.00
153.39
168.92
178.03
184.66
192.21
202.87
217.31
235.20
253.37
267.78
274.41
271.97
261.18
243.53
220.93
195.68
170.33
145.77
122.10
98.16
73.65
48.77
23.72
-1.18
-25.52
-49.20
-74.47
-97.68
-119.56
-141.59
-165.27
-191.82
-221.73
-254.64
-288.72
-320.95
-346.79
-361.91
-362.49
-346.90
-316.90
-277.22
-233.97
-191.82
-152.19
-112.64
-69.67
-20.75
33.91
91.31
146.75
195.48
234.28
261.85
278.82
285.84
282.82
269.42
245.96
214.03
176.40
136.89
99.74
71.38
59.82
68.30
91.45
118.73
141.16
154.22
160.98
165.88
172.23
180.62
188.40
191.53
187.03
173.84
153.41
128.76
103.44
80.68
62.47
48.81
38.76
31.51
26.70
24.38
24.57
27.24
32.51
40.80
52.54
68.15
87.96
111.49
137.05
161.85
182.42
195.62
198.90
190.48
169.50
136.46
92.97
41.59
-14.79
-73.39
-131.58
-187.10
-238.04
-283.28
-322.72
-357.88
-391.57
-427.09
-467.19
-512.93
-563.20
-614.47
-661.09
-696.02
-712.39
-705.45
-674.14
-621.93
-555.58
-482.72
-409.34
-338.70
-271.90
-209.80
-154.07
-106.62
-68.04
-36.07
-5.87
27.80
67.35
110.87
152.46
184.67
201.82
201.93
187.20
162.94
135.74
111.74
95.68
90.06
94.54
106.35
121.21
135.44
148.06
161.21
179.10
205.55
241.43
283.59
325.86
361.17
383.79
390.67
381.28
356.89
319.77
272.85
219.55
163.71
108.83
57.51
11.20
-29.69
-65.11
-94.81
-117.91
-133.11
-139.09
-135.60
-124.24
-108.62
-93.89
-85.38
-86.88
-99.46
-121.27
-148.32
-176.13
-201.09
-221.12
-235.63
-244.62
-248.05
-245.25
-235.32
-217.38
-191.21
-157.68
-118.81
-77.78
-38.18
-3.40
24.28
43.87
55.84
61.56
62.89
61.83
60.13
59.55
61.26
65.52
71.13
75.87
77.17
73.38
64.83
53.74
43.53
37.53
37.88
45.28
59.36
79.38
104.52
134.26
167.95
204.65
243.02
281.40
317.86
350.23
376.32
394.05
402.14
400.38
389.83
372.22
349.23
321.89
290.11
253.43
211.78
166.46
120.18
76.62
38.90
8.39
-15.71
-36.02
-55.72
-77.18
-100.95
-125.84
-149.37
-168.93
-182.62
-189.92
-191.52
-189.17
-185.37
-182.86
-184.13
-190.73
-202.38
-216.70
-229.82
-237.55
-237.35
-229.78
-218.59
-209.36
-207.37
-215.30
-232.29
-254.41
-276.15
-292.18
-298.69
-293.84
-277.23
-249.46
-211.70
-166.01
-115.73
-65.54
-20.73
14.18
36.98
48.62
52.89
55.00
59.65
69.62
85.43
105.53
126.91
145.98
159.09
163.93
160.80
153.52
148.73
153.73
173.35
207.63
251.89
298.71
341.31
376.04
403.18
424.99
443.39
457.95
465.77
462.88
446.40
415.87
373.86
325.32
275.86
230.30
191.36
159.49
133.14
109.70
86.43
61.06
32.01
-1.56
-39.57
-80.71
-122.34
-160.75
-192.16
-213.74
-224.54
-225.67
-219.86
-210.26
-199.42
-188.68
-178.03
-166.82
-154.48
-141.27
-128.47
-118.21
-112.64
-113.28
-120.23
-131.84
-145.31
-157.47
-166.17
-170.92
-173.37
-176.63
-184.11
-198.03
-218.04
-241.13
-262.30
-276.51
-280.30
-272.93
-256.43
-234.34
-210.53
-187.55
-166.64
-147.70
-130.22
-113.61
-97.22
-80.38
-62.24
-42.27
-20.41
2.61
25.70
47.60
67.52
85.44
101.97
118.04
133.92
148.91
161.22
168.77
170.11
164.98
154.53
140.48
124.52
107.54
89.68
70.87
51.62
33.38
18.04
7.32
1.75
0.54
1.79
3.18
2.75
-0.51
-6.40
-13.69
-20.58
-25.61
-28.03
-28.16
-26.70
-24.11
-20.21
-14.28
-5.84
4.59
14.98
22.51
24.50
19.82
9.42
-4.12
-17.57
-28.24
-34.59
-36.37
-34.28
-29.48
-23.36
-17.36
-12.92
-11.21
-12.87
-17.67
-24.78
-32.92
-41.13
-49.18
-57.45
-66.82
-77.89
-90.83
-105.07
-119.64
-133.34
-145.20
-154.54
-160.72
-163.03
-160.41
-151.46
-134.70
-108.96
-74.14
-31.79
14.79
61.43
104.40
141.75
174.08
203.85
234.12
266.68
301.19
335.48
366.60
392.13
410.84
422.34
426.32
422.13
409.17
387.89
360.68
331.55
305.14
285.32
274.21
271.90
277.17
288.44
304.39
323.71
343.94
360.83
368.68
361.65
336.03
291.88
233.46
167.96
103.31
45.88
-0.61
-34.95
-57.54
-69.44
-72.02
-67.15
-57.63
-47.16
-39.63
-37.88
-43.04
-54.30
-69.38
-85.71
-101.38
-115.85
-130.22
-146.69
-167.68
-195.02
-228.65
-265.98
-301.98
-330.41
-345.80
-345.59
-331.24
-307.83
-282.45
-261.64
-249.31
-245.95
-249.34
-255.95
-262.54
-267.00
-268.50
-267.31
-264.54
-261.91
-261.45
-264.66
-271.71
-280.96
-289.17
-292.50
-288.13
-275.30
-255.45
-231.45
-205.93
-180.31
-154.39
-127.04
-97.09
-64.09
-28.32
9.51
48.51
88.09
127.42
165.39
200.57
231.80
258.46
280.83
299.67
315.10
326.57
332.94
333.47
329.01
322.44
317.59
317.64
323.61
333.43
343.82
351.64
355.31
355.05
351.71
345.18
333.43
313.09
280.48
234.72
178.02
115.47
53.44
-2.44
-48.48
-83.91
-106.32
-118.13
-120.89
-116.00
-104.93
-89.69
-73.16
-58.70
-49.56
-48.07
-55.73
-71.81
-94.28
-120.39
-147.33
-172.76
-195.03
-212.95
-225.46
-232.04
-232.11
-226.08
-215.33
-202.17
-189.02
-177.46
-167.75
-158.89
-149.60
-139.07
-128.22
-119.76
-117.43
-124.88
-144.13
-175.14
-215.53
-261.20
-307.03
-347.98
-379.46
-397.81
-400.70
-387.51
-359.85
-321.30
-276.88
-232.30
-192.82
-161.50
-138.40
-120.76
-104.12
-84.18
-57.99
-24.48
14.44
54.74
92.06
123.25
147.02
163.86
175.68
185.68
198.47
217.46
243.89
276.89
314.07
351.55
384.43
407.91
419.01
418.37
407.97
389.80
365.06
334.21
296.41
250.09
194.53
124.54
48.46
-15.60
-52.26
-59.11
-44.31
-19.50
5.97
26.12
41.80
55.63
68.22
77.55
80.75
76.34
64.44
46.08
23.10
-2.85
-30.44
-59.73
-91.49
-125.19
-157.72
-184.29
-200.31
-203.21
-193.29
-172.93
-146.36
-117.92
-90.64
-65.06
-40.09
-14.03
14.17
44.27
74.90
103.50
127.16
143.39
150.97
149.91
141.36
126.96
108.61
87.94
66.03
43.24
19.27
-6.42
-33.86
-61.94
-88.22
-109.30
-121.89
-123.87
-115.16
-97.84
-75.87
-54.23
-38.26
-32.57
-39.95
-60.17
-89.72
-122.34
-151.16
-171.16
-181.03
-183.43
-183.20
-184.51
-188.86
-194.70
-198.92
-199.08
-194.49
-186.31
-176.15
-164.73
-151.27
-134.45
-113.58
-89.46
-64.37
-40.98
-21.19
-5.37
7.66
20.14
34.30
51.57
72.12
95.12
119.14
142.66
164.55
183.93
200.39
213.68
223.45
229.71
233.19
235.32
237.44
239.92
241.06
237.57
225.95
203.57
170.57
130.17
87.94
49.63
19.60
-0.91
-13.06
-19.72
-25.54
-34.71
-49.37
-68.91
-91.16
-113.04
-132.71
-148.33
-158.32
-163.70
-165.83
-164.59
-157.82
-143.17
-119.21
-88.04
-52.08
-13.26
23.28
52.90
74.58
91.59
108.47
128.64
149.55
167.11
176.62
168.37
133.10
67.38
-24.17
-131.76
-243.60
-353.11
-454.42
-512.35
-497.48
-410.71
-284.44
-153.46
-47.32
43.48
124.25
194.85
253.47
291.98
303.04
286.38
243.31
182.91
119.66
63.01
17.72
-15.90
-43.67
-71.91
-102.66
-131.79
-151.36
-153.01
-134.69
-98.17
-48.87
2.44
44.12
68.97
77.19
74.89
70.12
66.74
65.49
64.93
62.10
55.13
45.00
34.96
28.62
27.71
30.41
33.74
35.00
32.79
27.31
20.16
13.37
8.45
5.55
3.15
-0.72
-7.48
-17.32
-29.14
-41.14
-51.46
-58.71
-62.57
-63.07
-60.59
-55.55
-47.93
-37.60
-24.56
-9.33
6.96
22.71
36.41
47.09
54.51
59.40
62.88
65.89
68.87
71.49
72.92
72.54
70.43
67.48
65.18
65.04
67.77
73.05
79.49
85.41
89.39
90.84
89.47
85.41
79.09
71.49
64.47
59.98
58.96
60.04
59.61
52.44
34.54
5.02
-32.93
-73.40
-110.87
-142.97
-171.34
-196.41
-218.38
-235.04
-241.85
-232.95
-203.81
-153.92
-88.34
-17.12
47.86
95.64
119.20
116.17
89.59
46.77
-2.71
-49.08
-84.37
-102.75
-101.44
-78.38
-38.34
7.55
46.57
70.41
79.61
77.77
68.69
55.36
40.03
22.91
5.16
-11.34
-24.66
-33.69
-39.02
-41.64
-42.02
-39.66
-33.67
-22.48
-4.70
19.75
48.76
77.70
101.30
115.30
117.47
107.58
87.43
60.13
29.00
-3.20
-34.65
-63.46
-86.88
-100.62
-101.53
-89.68
-68.66
-43.68
-19.36
1.29
17.37
29.32
37.84
43.20
45.30
44.29
40.99
36.74
32.66
29.45
26.90
24.05
19.81
13.67
6.14
-1.24
-6.54
-8.33
-5.70
1.34
12.19
25.64
40.08
53.79
65.15
73.78
78.40
78.77
75.48
69.76
62.88
55.68
48.29
40.24
30.95
20.10
8.19
-3.72
-14.49
-23.36
-30.16
-35.20
-39.09
-42.40
-45.49
-48.19
-50.03
-50.13
-47.56
-41.61
-32.24
-20.58
-8.67
1.01
6.62
7.33
3.52
-3.76
-12.81
-21.98
-30.02
-36.04
-39.44
-39.65
-36.43
-29.93
-20.94
-10.79
-1.11
6.62
11.55
13.50
12.97
10.76
7.89
5.33
4.01
4.45
6.51
9.46
11.96
12.72
10.95
6.73
0.88
-5.45
-11.31
-16.38
-20.99
-25.79
-31.31
-37.72
-44.70
-51.72
-58.30
-64.13
-69.09
-72.92
-74.94
-73.84
-68.29
-57.70
-42.90
-26.33
-11.42
-1.39
2.08
-0.61
-6.96
-13.44
-16.74
-14.70
-6.75
6.27
22.72
40.75
58.71
75.37
89.92
101.97
111.50
118.68
123.91
127.59
130.11
131.69
132.47
132.54
132.07
131.44
131.06
131.37
132.60
134.52
136.43
137.25
135.57
130.00
119.59
103.98
83.73
60.08
34.70
9.23
-14.83
-36.51
-55.42
-71.69
-86.00
-99.20
-112.05
-124.92
-137.62
-149.61
-160.39
-170.00
-179.00
-188.36
-198.69
-209.85
-220.91
-230.53
-237.52
-240.94
-239.83
-233.00
-218.91
-196.18
-164.55
-125.52
-82.26
-38.73
1.54
36.43
65.24
88.11
105.29
116.85
123.03
124.88
124.42
124.39
127.05
133.26
141.88
150.15
154.76
153.08
144.04
128.07
106.78
82.17
56.11
30.20
5.69
-16.45
-35.58
-51.54
-64.73
-75.68
-84.77
-91.93
-96.42
-97.32
-93.96
-86.53
-76.13
-64.64
-53.96
-45.49
-39.71
-36.08
-33.64
-31.48
-29.21
-27.27
-26.67
-28.43
-33.15
-40.63
-49.74
-58.87
-66.37
-71.04
-72.49
-71.28
-68.63
-65.62
-63.05
-61.21
-60.28
-60.47
-61.98
-64.65
-67.81
-70.26
-70.48
-67.21
-59.59
-47.32
-30.30
-8.44
17.95
47.45
77.10
102.69
119.89
126.07
121.28
108.39
91.99
76.53
64.79
57.35
53.20
50.93
50.08
51.40
56.17
65.22
78.14
93.15
107.93
120.65
130.64
138.53
145.46
151.97
157.40
159.89
157.32
148.33
133.01
113.00
91.20
70.57
53.31
40.41
31.53
25.70
22.00
20.11
20.29
23.12
28.81
36.98
46.66
57.04
68.07
80.26
93.98
108.78
123.08
134.32
139.84
137.57
126.72
107.95
82.80
53.11
20.75
-12.29
-43.90
-71.69
-93.75
-108.45
-114.75
-112.29
-101.71
-84.53
-62.67
-38.29
-13.16
9.88
28.55
41.58
49.04
51.68
50.31
46.14
39.90
32.74
23.00
9.37
-7.97
-26.87
-44.65
-59.58
-70.22
-77.20
-81.01
-86.67
-98.32
-117.42
-141.53
-166.46
-189.00
-206.63
-220.87
-233.76
-253.10
-284.76
-330.55
-386.45
-445.76
-502.99
-553.53
-597.81
-597.82
-528.90
-393.40
-224.03
-58.60
80.54
176.78
244.22
293.15
329.47
350.07
351.11
330.59
290.59
236.81
175.86
115.06
57.15
4.19
-46.24
-81.62
-90.85
-69.79
-24.29
34.94
100.02
164.25
223.78
272.15
308.52
329.62
332.92
319.00
291.11
254.24
211.42
165.01
117.01
69.03
20.62
-29.32
-79.91
-128.23
-170.13
-202.63
-223.57
-232.43
-230.78
-221.99
-210.59
-198.66
-185.49
-169.14
-149.59
-129.30
-112.19
-102.93
-89.61
-63.65
-22.78
27.53
78.17
120.47
148.65
161.33
159.06
143.74
115.14
72.27
15.50
-51.97
-123.93
-192.39
-234.21
-237.84
-204.67
-148.52
-86.19
-30.32
13.75
46.46
70.94
90.39
104.11
111.26
111.09
104.80
95.20
85.89
79.42
76.80
77.78
79.16
78.68
75.26
69.61
63.76
60.23
60.70
65.57
74.29
84.26
93.80
102.09
109.49
115.95
121.34
124.48
123.03
114.89
97.39
70.18
35.08
-4.71
-45.50
-83.88
-117.97
-147.84
-173.33
-195.18
-212.49
-222.92
-223.95
-214.42
-194.31
-166.07
-134.15
-97.20
-61.08
-31.36
-5.49
18.52
40.93
62.81
85.02
107.39
131.09
156.13
181.93
197.71
194.69
168.58
124.52
77.30
29.62
-16.29
-54.16
-84.15
-108.51
-130.18
-153.27
-168.85
-168.67
-151.19
-118.66
-77.84
-38.27
1.15
43.45
89.40
142.79
205.31
272.13
329.54
351.63
323.05
250.14
173.25
105.91
44.22
-1.95
-41.62
-83.87
-130.63
-176.53
-212.62
-231.02
-231.30
-214.87
-185.89
-152.42
-117.80
-80.09
-30.54
27.46
80.43
112.76
119.85
106.68
80.52
50.64
24.80
7.36
-2.16
-5.97
-7.52
-7.61
-5.92
-3.76
-1.98
-1.02
-0.85
-1.92
-3.80
-6.13
-7.81
-7.91
-7.00
-5.73
-4.69
-4.33
-5.24
-7.20
-9.57
-11.50
-12.59
-13.32
-14.41
-16.50
-20.07
-25.41
-32.08
-38.98
-44.95
-49.21
-51.42
-51.65
-50.19
-47.14
-42.86
-37.74
-32.17
-26.51
-21.33
-17.17
-14.47
-13.04
-12.38
-12.07
-11.94
-11.95
-11.86
-11.71
-11.45
-10.94
-9.11
-4.86
2.24
11.75
22.31
32.85
41.55
46.67
46.89
42.99
36.37
28.31
19.50
9.87
0.70
-7.67
-14.97
-20.89
-23.11
-18.90
-5.82
17.77
52.04
97.00
149.17
203.16
245.81
268.02
265.76
240.66
198.70
137.09
63.03
-12.17
-78.32
-130.61
-166.30
-183.58
-181.81
-162.75
-131.62
-93.85
-56.15
-23.44
1.02
16.26
23.24
24.64
24.54
27.29
37.61
52.44
68.51
79.67
80.57
69.51
49.30
25.51
3.57
-12.71
-23.14
-29.47
-34.17
-38.01
-40.11
-39.38
-35.76
-30.56
-25.32
-21.76
-20.49
-21.44
-23.55
-25.31
-25.78
-25.00
-23.96
-23.83
-25.78
-30.10
-36.47
-43.93
-50.93
-56.03
-58.29
-57.51
-53.72
-47.36
-39.04
-29.57
-19.83
-10.27
-1.04
8.04
17.29
26.89
36.66
46.10
54.03
59.10
60.66
59.05
55.60
52.39
51.56
54.39
60.55
67.46
70.99
67.07
53.23
29.33
-2.54
-38.93
-76.15
-109.96
-136.01
-151.59
-155.76
-149.24
-134.38
-114.78
-94.11
-75.18
-57.23
-39.23
-21.24
-5.33
4.43
4.25
-7.08
-26.33
-46.79
-61.30
-66.05
-61.76
-52.35
-41.90
-31.54
-20.29
-5.79
13.22
35.01
54.89
67.71
70.47
63.35
49.53
33.33
18.55
7.08
-1.95
-11.65
-26.02
-48.18
-78.40
-112.69
-143.12
-159.58
-152.99
-119.12
-60.86
11.65
83.20
137.52
162.00
151.31
109.29
47.85
-16.58
-68.09
-95.87
-96.62
-73.75
-34.26
14.88
68.81
124.64
179.31
228.11
264.76
283.52
282.18
263.75
236.03
208.45
188.62
179.57
179.67
183.90
186.41
182.59
170.00
148.03
117.00
77.56
30.72
-21.49
-75.77
-127.68
-173.00
-208.99
-235.10
-252.54
-262.54
-264.63
-255.92
-232.10
-189.81
-129.06
-54.55
25.21
99.70
159.16
196.42
207.37
190.84
149.14
88.91
21.27
-39.64
-81.57
-97.65
-88.40
-61.03
-26.98
2.19
18.23
18.23
5.23
-14.71
-34.07
-45.35
-42.85
-24.33
8.76
52.30
101.01
149.73
191.75
218.99
223.82
201.72
153.29
84.71
6.17
-73.43
-140.17
-183.05
-200.16
-198.83
-188.55
-175.15
-160.34
-143.64
-124.66
-103.45
-82.08
-62.86
-46.99
-33.40
-19.68
-3.48
16.32
39.54
65.25
90.74
113.59
131.42
143.14
148.65
148.18
141.65
128.90
110.45
85.56
56.42
25.48
-4.36
-30.34
-50.72
-65.01
-73.75
-77.81
-79.03
-79.15
-79.96
-82.48
-87.00
-93.43
-101.51
-112.84
-125.45
-137.79
-147.91
-154.09
-154.69
-148.62
-135.60
-116.59
-93.46
-68.23
-43.53
-21.12
-2.00
13.68
26.51
37.34
46.65
54.55
61.13
66.39
71.35
77.11
84.91
95.56
109.04
124.00
137.78
147.11
148.46
140.31
121.96
93.82
57.01
14.22
-29.90
-70.40
-104.41
-132.34
-155.68
-177.30
-198.81
-218.74
-231.99
-232.21
-215.27
-181.73
-142.44
-102.41
-66.92
-39.40
-19.70
-3.59
14.88
40.48
75.14
117.40
163.80
207.94
242.81
259.09
250.72
217.01
162.56
95.60
25.13
-40.82
-95.22
-131.26
-145.83
-140.08
-118.08
-85.03
-46.00
-5.80
31.82
63.93
88.98
106.64
118.27
127.27
135.45
143.11
149.20
151.76
148.43
137.33
117.88
91.20
59.52
24.46
-13.56
-53.65
-93.57
-131.09
-164.79
-194.26
-219.94
-242.31
-261.21
-274.37
-277.38
-266.04
-238.70
-198.28
-151.89
-109.18
-78.67
-65.11
-67.33
-79.67
-95.71
-111.03
-124.82
-136.68
-146.44
-153.33
-156.45
-154.50
-147.18
-135.59
-121.79
-107.86
-94.84
-83.06
-72.51
-63.61
-56.21
-50.51
-46.90
-45.26
-44.28
-40.71
-30.42
-9.24
19.36
52.21
84.81
113.00
134.50
150.36
165.12
183.28
207.36
234.72
262.44
287.43
307.94
323.29
333.57
340.79
346.59
352.69
357.59
361.67
364.41
364.06
356.69
338.30
308.74
270.63
229.82
189.97
157.12
135.68
127.18
128.41
119.74
88.26
32.13
-19.75
-55.09
-69.62
-70.13
-60.87
-44.59
-21.54
12.02
50.21
85.03
103.01
95.77
62.56
10.91
-48.16
-103.82
-147.10
-174.90
-188.26
-193.89
-196.57
-198.51
-199.41
-199.12
-198.14
-196.75
-196.15
-196.34
-199.43
-204.05
-206.92
-204.13
-193.04
-172.47
-142.04
-102.74
-56.52
-8.16
34.57
63.67
73.90
64.87
41.79
13.81
-10.16
-24.27
-28.15
-24.99
-18.88
-12.42
-6.19
0.38
7.70
14.65
19.56
21.02
19.07
15.36
12.40
12.42
16.13
22.76
30.35
36.85
41.05
43.15
44.68
47.82
54.31
64.54
77.62
90.82
101.07
105.82
103.79
95.21
81.42
64.10
44.57
23.28
0.63
-23.34
-48.13
-72.62
-94.81
-112.51
-124.24
-129.71
-129.89
-126.88
-122.99
-119.96
-119.06
-120.96
-125.58
-131.57
-135.93
-134.23
-122.38
-98.66
-65.19
-27.80
6.04
30.28
42.56
44.63
40.65
34.71
28.98
23.58
17.82
11.26
4.62
-0.74
-3.89
-5.20
-6.31
-9.38
-16.35
-27.75
-42.84
-59.80
-76.43
-90.82
-102.01
-109.52
-113.15
-112.62
-107.21
-95.87
-77.59
-52.06
-20.25
15.45
51.20
83.28
108.78
126.34
136.34
140.63
141.65
141.41
141.50
141.50
140.43
137.41
132.13
125.18
117.85
111.51
106.99
104.87
105.33
108.18
112.10
114.16
110.18
96.19
70.54
35.47
-3.11
-37.76
-62.44
-74.87
-76.94
-72.91
-66.92
-61.25
-56.02
-50.49
-44.42
-38.55
-34.22
-32.28
-32.34
-32.98
-32.62
-30.04
-25.28
-19.47
-14.10
-10.21
-7.82
-5.73
-2.05
4.77
15.52
29.56
45.10
59.91
72.07
80.27
84.21
84.12
80.29
72.59
60.42
43.18
20.84
-5.21
-32.65
-58.52
-80.25
-96.19
-106.16
-111.35
-113.87
-115.21
-116.94
-120.31
-125.72
-132.17
-136.82
-135.59
-124.64
-102.44
-70.98
-35.99
-4.61
17.49
28.19
29.32
24.91
18.73
12.60
6.24
-1.83
-12.49
-25.35
-39.01
-51.95
-63.34
-73.12
-81.61
-88.63
-93.31
-94.02
-88.85
-76.32
-56.02
-29.06
2.04
33.64
62.34
85.53
102.03
112.17
117.44
119.83
121.40
122.72
123.63
123.41
121.20
116.71
110.43
103.55
97.49
93.19
90.93
90.66
92.20
94.89
97.20
96.41
89.07
72.40
46.04
12.84
-21.58
-51.01
-71.15
-81.14
-82.95
-79.92
-74.84
-68.97
-62.42
-55.12
-47.56
-40.64
-35.06
-30.17
-24.36
-15.86
-3.84
10.90
25.73
37.24
42.14
38.13
24.57
2.80
-23.47
-48.85
-66.97
-73.35
-67.08
-51.45
-32.57
-16.97
-9.02
-9.37
-15.79
-25.11
-35.26
-45.98
-58.21
-72.47
-87.83
-102.05
-112.10
-115.61
-111.84
-101.55
-86.25
-67.58
-46.43
-23.08
1.93
28.08
54.21
78.56
99.07
114.85
124.50
127.92
126.12
120.57
112.74
103.50
93.10
81.25
67.72
52.38
35.86
19.54
5.24
-5.30
-11.00
-11.71
-8.27
-2.24
4.58
10.95
16.49
21.39
26.11
30.88
35.26
38.23
38.45
35.14
28.37
19.61
10.79
3.99
0.86
2.30
8.67
19.64
33.64
46.48
53.62
50.28
34.11
7.00
-25.08
-54.33
-74.30
-82.45
-80.66
-73.25
-64.55
-56.93
-50.49
-44.31
-38.13
-32.55
-28.87
-27.89
-28.99
-30.47
-30.26
-26.65
-19.17
-8.65
3.56
16.07
27.99
39.14
49.76
59.74
68.38
74.27
75.65
71.06
59.91
42.78
21.28
-2.11
-24.98
-45.39
-62.38
-75.56
-85.38
-92.93
-99.46
-105.48
-110.42
-112.58
-109.73
-100.40
-84.71
-64.55
-42.67
-21.67
-3.01
12.66
25.22
34.38
39.70
41.02
38.76
34.28
29.26
25.01
21.91
19.30
15.95
10.79
3.19
-7.30
-20.43
-35.20
-50.08
-63.18
-72.48
-76.30
-73.54
-64.01
-48.42
-28.09
-4.76
19.83
43.99
65.94
84.12
97.15
104.04
104.50
99.22
89.85
78.83
68.96
62.43
60.23
61.79
65.31
68.52
69.56
67.41
62.18
54.98
47.17
40.21
35.34
33.57
35.04
38.28
40.06
35.58
21.98
-0.79
-28.96
-56.30
-76.44
-85.76
-84.71
-76.89
-66.88
-57.80
-50.63
-44.66
-39.00
-33.49
-28.98
-26.49
-26.23
-27.39
-28.48
-28.12
-25.68
-21.77
-17.42
-13.84
-11.79
-11.14
-11.08
-10.32
-7.73
-2.58
5.11
15.05
26.67
39.34
52.40
65.01
75.99
84.00
87.73
86.22
79.29
67.48
51.94
34.02
15.15
-3.77
-22.20
-39.71
-55.65
-69.11
-79.11
-85.35
-87.60
-86.78
-84.41
-82.01
-80.74
-81.44
-84.58
-90.03
-96.46
-100.79
-98.95
-87.35
-64.77
-33.65
0.23
29.91
50.13
59.34
59.85
55.95
51.62
48.61
46.47
43.84
39.84
34.75
29.70
25.69
22.58
19.27
14.03
5.15
-7.83
-24.01
-41.26
-56.62
-67.09
-70.62
-66.41
-55.21
-38.80
-19.38
1.24
21.77
41.35
59.69
76.43
91.16
103.55
113.70
121.96
127.87
130.05
125.36
110.88
85.70
52.32
16.41
-15.15
-37.02
-47.67
-49.20
-45.76
-41.09
-37.12
-33.64
-29.73
-25.03
-20.17
-16.33
-14.11
-12.87
-10.83
-6.09
2.87
16.17
32.53
49.71
65.20
76.94
83.76
85.52
82.77
76.31
66.74
54.35
39.15
21.49
2.00
-18.18
-37.36
-53.69
-65.68
-72.66
-75.25
-74.52
-72.42
-70.83
-70.95
-72.92
-75.85
-78.40
-79.47
-78.65
-76.23
-73.29
-71.02
-70.28
-71.65
-75.39
-81.30
-88.13
-93.10
-92.27
-82.01
