1660157960.00
64.000000
-0.00
-0.00
-0.00
-0.00
-0.00
-0.00
-0.00
-0.00
-0.00
-0.00
0.00
0.01
0.01
-0.00
-0.03
-0.05
-0.05
0.00
0.13
0.36
0.66
1.01
1.37
1.72
2.06
2.40
2.79
3.24
3.80
4.42
5.06
5.66
6.20
6.68
7.15
7.68
8.31
9.14
10.09
11.04
11.88
12.56
13.14
13.76
14.65
15.96
17.91
20.32
22.90
25.38
27.58
29.57
31.68
34.32
37.81
42.54
48.15
54.10
59.83
64.97
69.58
74.14
79.34
85.71
93.76
103.00
112.62
121.73
129.77
136.75
143.30
150.75
157.77
166.64
177.95
191.79
206.97
220.57
228.25
225.36
208.53
176.87
132.76
80.05
23.07
-34.94
-92.44
-149.16
-205.23
-260.37
-313.74
-363.87
-409.82
-450.88
-486.46
-515.68
-537.14
-549.10
-549.80
-538.17
-513.96
-478.37
-433.52
-382.03
-326.54
-269.29
-212.02
-155.97
-102.19
-51.54
-4.99
36.58
72.52
102.54
126.80
145.80
160.24
170.85
178.23
182.80
184.82
184.55
182.24
178.25
172.99
166.85
160.20
153.29
146.24
139.14
132.02
124.94
117.94
111.12
104.52
98.22
92.24
86.59
81.30
76.37
71.80
67.60
63.79
60.36
57.33
54.69
52.43
50.56
49.05
47.87
46.96
46.23
45.56
44.81
43.80
42.37
40.36
37.63
34.13
29.83
24.83
19.19
13.10
6.81
0.57
-5.36
-10.74
-15.36
-19.09
-21.86
-23.65
-24.52
-24.57
-23.94
-22.79
-21.28
-19.54
-17.68
-15.78
-13.87
-11.95
-10.02
-8.05
-6.02
-3.89
-1.62
0.81
3.44
6.28
9.33
12.55
15.89
19.29
22.75
26.24
29.76
33.33
36.98
40.79
44.67
48.59
52.56
56.60
60.75
65.04
69.53
74.31
79.45
84.82
90.31
95.87
101.45
107.01
112.54
118.04
123.54
129.10
134.46
139.39
143.72
147.23
149.65
150.63
149.68
146.11
141.23
135.54
129.32
122.77
116.04
109.24
102.49
95.88
89.55
83.65
78.05
72.65
67.44
62.41
57.57
52.96
48.61
44.60
41.02
37.72
34.62
31.69
28.89
26.23
23.71
21.32
19.12
17.15
15.31
13.54
11.81
10.09
8.38
6.66
4.98
3.34
1.83
0.43
-0.90
-2.13
-3.29
-4.38
-5.44
-6.42
-7.34
-8.16
-8.91
-9.61
-10.30
-11.01
-11.79
-12.66
-13.60
-14.60
-15.60
-16.58
-17.52
-18.49
-19.58
-20.87
-22.48
-24.39
-26.59
-28.97
-31.47
-34.10
-36.92
-40.11
-43.80
-48.08
-52.92
-58.16
-63.62
-69.18
-74.87
-80.88
-87.50
-94.97
-103.39
-112.64
-122.42
-132.48
-142.68
-153.12
-164.07
-175.81
-188.52
-202.26
-217.11
-233.33
-251.19
-270.71
-291.22
-311.23
-328.73
-341.79
-349.10
-350.07
-344.57
-332.41
-313.19
-286.66
-253.34
-215.04
-174.76
-135.88
-101.18
-72.13
-48.84
-30.59
-16.59
-6.29
0.60
4.42
5.88
5.98
5.86
6.29
7.45
8.97
10.18
10.54
9.94
8.73
7.46
6.56
5.99
5.20
3.33
-0.48
-6.86
-15.96
-27.30
-39.66
-51.05
-58.95
-60.89
-55.19
-41.64
-21.74
1.73
25.56
47.02
64.46
77.33
85.75
90.07
90.64
87.88
82.45
75.40
67.98
61.27
55.80
51.41
47.44
43.12
38.08
32.52
27.16
22.77
19.71
17.54
15.06
10.76
3.27
-8.01
-22.71
-39.49
-56.15
-70.11
-78.83
-80.37
-73.93
-60.15
-40.92
-18.93
3.12
23.16
39.89
52.78
61.61
66.31
66.93
63.94
58.39
51.78
45.70
41.31
39.00
38.28
38.11
37.43
35.57
32.48
28.61
24.60
20.91
17.63
14.47
10.92
6.45
0.67
-6.44
-14.38
-21.91
-27.13
-27.77
-21.79
-8.25
12.27
37.64
64.82
90.81
113.41
131.50
144.79
153.36
157.27
156.60
151.75
143.62
133.51
122.73
112.04
101.46
90.40
78.17
64.59
50.27
36.49
24.71
15.99
10.55
7.73
6.16
4.15
0.03
-7.46
-18.87
-33.61
-49.91
-65.01
-75.87
-80.19
-77.31
-68.57
-56.87
-45.54
-37.20
-32.96
-32.41
-34.26
-37.02
-39.61
-41.48
-42.37
-42.18
-41.00
-39.30
-37.97
-38.16
-40.74
-45.72
-51.90
-57.05
-58.71
-55.11
-46.00
-32.83
-18.35
-5.67
2.65
5.27
2.28
-4.95
-14.16
-22.54
-27.23
-25.77
-16.57
0.68
24.97
54.08
85.05
114.71
140.18
159.30
170.84
174.74
171.97
164.34
154.12
143.29
133.21
124.32
116.30
108.45
100.09
90.97
81.16
70.91
60.25
48.78
35.64
19.69
-0.17
-24.72
-54.04
-87.38
-122.85
-157.48
-187.53
-209.23
-219.90
-218.78
-207.46
-189.51
-169.41
-151.31
-138.15
-131.23
-130.56
-135.32
-144.35
-156.44
-170.40
-185.04
-198.97
-210.54
-217.75
-218.45
-210.87
-194.17
-168.97
-137.50
-103.21
-70.00
-41.30
-19.41
-5.28
1.37
1.91
-1.50
-6.04
-8.52
-5.98
3.55
20.40
42.97
68.15
92.08
111.34
123.76
128.89
127.69
121.97
113.63
104.15
94.35
84.54
74.77
64.90
54.92
44.90
35.03
25.56
16.77
8.86
1.89
-4.26
-10.01
-16.01
-23.12
-32.19
-43.76
-57.63
-72.67
-86.76
-97.22
-101.61
-98.44
-87.79
-71.24
-51.51
-31.51
-13.73
0.29
10.01
15.64
17.91
17.71
15.94
13.41
10.61
7.73
4.78
1.68
-1.51
-4.55
-7.04
-8.69
-9.44
-9.53
-9.49
-10.11
-12.23
-16.69
-24.01
-34.03
-45.59
-56.45
-63.62
-64.22
-56.44
-40.18
-17.24
9.35
36.14
60.23
79.74
93.86
102.58
106.30
105.77
101.87
95.75
88.55
81.24
74.22
67.42
60.37
52.67
44.18
35.22
26.25
17.65
9.38
0.97
-8.35
-19.35
-32.55
-47.89
-64.52
-80.53
-93.17
-99.29
-96.26
-82.94
-60.20
-30.93
0.87
31.14
56.80
76.22
89.11
96.03
97.99
96.12
91.60
85.61
79.12
72.86
67.07
61.63
56.16
50.42
44.39
38.35
32.68
27.62
23.07
18.50
13.11
5.91
-3.91
-16.68
-31.87
-47.78
-61.73
-70.47
-71.26
-62.76
-45.69
-22.69
2.46
25.99
45.19
58.71
66.44
68.97
67.10
61.75
53.98
45.03
36.17
28.32
21.82
16.39
11.39
6.23
0.72
-4.95
-10.43
-15.62
-20.74
-26.42
-33.48
-42.69
-54.46
-68.55
-83.77
-97.93
-108.08
-111.23
-105.37
-90.26
-67.70
-41.02
-14.08
9.85
28.78
41.97
49.66
52.52
51.38
47.16
40.95
33.95
27.19
21.35
16.51
12.31
8.16
3.63
-1.37
-6.62
-11.74
-16.49
-20.99
-25.93
-32.36
-41.49
-54.04
-69.71
-86.72
-101.96
-111.65
-112.51
-102.89
-83.38
-56.69
-26.75
2.41
27.65
47.20
60.54
68.06
70.64
69.40
65.55
60.30
54.65
49.15
43.91
38.60
32.86
26.52
19.84
13.38
7.78
3.40
0.12
-2.74
-6.33
-12.04
-21.05
-33.82
-49.54
-65.94
-79.50
-86.45
-83.88
-70.95
-49.22
-22.14
6.14
32.05
53.47
69.71
81.00
87.84
90.54
89.37
84.82
77.88
69.87
62.11
55.37
49.67
44.39
38.74
32.30
25.21
18.12
11.81
6.64
2.36
-2.00
-7.76
-16.22
-28.08
-43.10
-59.83
-75.70
-87.49
-92.10
-87.53
-73.53
-51.81
-25.45
2.07
27.77
49.82
67.41
80.44
88.92
92.86
92.32
87.68
79.95
70.55
61.11
52.89
46.50
41.67
37.53
33.15
27.87
21.69
15.07
8.64
2.71
-2.94
-9.00
-16.41
-26.01
-38.25
-52.90
-68.91
-84.22
-96.01
-101.18
-97.37
-83.72
-61.43
-33.48
-3.71
24.33
48.22
67.00
80.76
90.03
95.31
96.90
95.12
90.63
84.52
78.14
72.69
68.83
66.41
64.64
62.42
58.85
53.62
47.05
40.00
33.29
27.41
22.20
16.91
10.52
1.96
-9.50
-24.08
-41.22
-59.43
-76.25
-88.58
-93.39
-88.67
-74.19
-51.80
-24.82
2.91
28.24
49.33
65.61
77.33
84.93
88.67
88.72
85.40
79.44
71.98
64.29
57.40
51.81
47.35
43.35
39.01
33.72
27.35
20.24
13.04
6.33
0.37
-5.06
-10.53
-16.83
-24.65
-34.56
-46.81
-61.14
-76.49
-90.81
-101.28
-104.93
-99.62
-84.96
-62.62
-35.89
-8.61
15.96
35.87
50.51
60.12
65.17
66.01
62.94
56.59
48.03
38.84
30.63
24.54
20.89
19.13
18.15
16.74
14.03
9.78
4.30
-1.76
-7.83
-13.66
-19.45
-25.69
-32.96
-41.73
-52.28
-64.64
-78.41
-92.51
-105.03
-113.38
-114.96
-108.01
-92.49
-70.20
-44.38
-18.55
4.48
23.19
37.28
47.05
52.83
54.72
52.79
47.50
39.99
31.92
25.02
20.47
18.35
17.70
16.93
14.57
9.99
3.62
-3.32
-9.42
-13.87
-16.80
-19.28
-22.77
-28.65
-37.73
-50.05
-64.84
-80.48
-94.56
-104.16
-106.45
-99.53
-83.20
-59.31
-31.23
-2.90
22.37
42.67
57.62
67.83
74.10
76.97
76.59
73.12
67.14
59.76
52.37
46.18
41.71
38.63
36.04
32.89
28.56
23.08
17.06
11.33
6.43
2.36
-1.45
-5.89
-11.84
-19.94
-30.42
-43.07
-57.02
-70.63
-81.56
-87.09
-84.93
-74.06
-55.27
-31.07
-4.98
19.63
40.33
56.04
66.71
72.79
74.74
73.01
68.12
60.87
52.42
44.00
36.63
30.74
26.19
22.36
18.48
13.97
8.62
2.57
-3.74
-9.92
-15.76
-21.30
-26.72
-32.15
-37.66
-43.29
-49.14
-55.31
-61.58
-67.00
-69.75
-67.53
-58.32
-41.37
-17.90
9.17
36.12
59.70
78.05
90.79
98.65
102.61
103.34
101.08
96.02
88.67
80.00
71.35
63.93
58.35
54.45
51.44
48.32
44.37
39.45
34.07
29.00
24.93
21.97
19.62
16.79
12.30
5.34
-4.27
-15.84
-27.89
-38.21
-44.38
-44.19
-36.31
-20.73
1.12
26.66
52.95
77.38
98.22
114.72
126.80
134.64
138.51
138.83
136.32
132.11
127.49
123.50
120.55
118.31
116.00
112.85
108.64
103.74
99.10
95.80
94.55
95.32
97.16
98.18
96.08
88.74
74.91
54.69
29.56
1.84
-26.16
-52.92
-78.23
-103.13
-129.33
-158.37
-190.60
-224.72
-257.79
-286.08
-306.28
-316.67
-317.58
-310.97
-299.45
-285.17
-269.27
-251.89
-232.69
-211.43
-188.17
-163.42
-138.00
-113.21
-90.66
-72.24
-59.54
-53.28
-52.80
-56.26
-61.23
-65.71
-68.88
-71.46
-75.35
-82.65
-94.59
-110.70
-128.81
-145.65
-158.03
-164.08
-163.75
-158.93
-152.82
-148.96
-150.45
-158.98
-174.40
-194.45
-215.27
-232.29
-241.61
-241.26
-231.64
-215.28
-195.48
-175.08
-155.50
-136.85
-118.55
-100.24
-82.12
-64.84
-48.74
-33.23
-16.71
2.89
27.20
56.38
88.59
120.13
146.10
161.49
162.50
147.72
118.89
80.95
41.10
6.97
-15.38
-23.04
-16.70
0.23
23.24
48.45
73.77
99.22
126.33
157.01
192.08
230.20
267.24
296.86
311.85
306.23
277.15
226.10
158.84
84.21
12.31
-47.50
-88.25
-106.40
-102.19
-79.19
-43.15
-0.35
44.01
87.00
128.24
169.14
211.65
256.66
302.90
346.60
382.38
404.70
409.75
396.63
367.42
326.43
278.63
228.39
178.85
132.02
89.29
51.82
20.61
-3.84
-21.89
-34.89
-44.85
-53.88
-63.58
-74.55
-86.34
-97.53
-106.28
-110.73
-109.57
-102.42
-90.00
-73.92
-56.19
-38.69
-22.66
-8.67
3.22
13.16
21.40
28.26
34.33
40.61
48.22
58.05
70.36
84.45
98.83
111.44
120.23
123.55
120.55
111.37
97.09
79.52
60.56
41.60
23.18
4.98
-13.57
-32.66
-51.58
-68.73
-82.19
-90.51
-93.23
-91.12
-85.67
-78.50
-70.80
-63.16
-55.64
-48.15
-40.65
-33.27
-26.23
-19.65
-13.48
-7.44
-1.21
5.33
11.97
18.09
22.80
25.34
25.27
22.77
18.38
12.66
5.95
-1.75
-10.50
-19.94
-28.96
-35.71
-38.14
-34.73
-25.16
-10.51
7.01
24.74
40.22
51.69
58.31
59.93
57.02
50.44
41.39
31.29
21.64
13.77
8.64
6.63
7.48
10.42
14.36
18.26
21.25
22.80
22.62
20.51
16.29
9.82
1.25
-8.57
-18.05
-25.01
-27.24
-23.38
-13.50
0.74
16.54
30.80
41.05
46.09
46.01
41.88
35.15
27.18
19.05
11.50
5.14
0.34
-2.70
-4.13
-4.41
-4.36
-4.83
-6.46
-9.53
-13.86
-19.07
-24.78
-30.89
-37.51
-44.79
-52.42
-59.41
-64.15
-64.96
-60.72
-51.54
-38.86
-24.94
-12.16
-2.19
4.32
7.64
8.54
7.78
5.84
2.96
-0.68
-4.81
-8.96
-12.55
-15.10
-16.27
-16.00
-14.40
-11.84
-8.91
-6.33
-4.94
-5.51
-8.64
-14.48
-22.52
-31.47
-39.32
-43.71
-42.66
-35.25
-22.12
-5.39
11.89
26.70
36.97
42.02
42.43
39.53
34.75
29.20
23.60
18.32
13.61
9.60
6.36
3.78
1.58
-0.58
-3.01
-5.84
-9.00
-12.40
-16.08
-20.34
-25.68
-32.42
-40.29
-48.19
-54.18
-56.11
-52.37
-42.69
-28.41
-12.16
3.02
14.51
20.92
22.17
19.21
13.51
6.47
-0.74
-7.38
-12.98
-17.29
-20.30
-22.24
-23.53
-24.65
-25.97
-27.64
-29.52
-31.45
-33.39
-35.73
-39.09
-44.12
-50.95
-58.73
-65.69
-69.48
-67.99
-60.14
-46.43
-28.83
-10.21
6.56
19.35
27.24
30.38
29.60
25.98
20.51
14.00
7.18
0.65
-5.11
-9.78
-13.40
-16.29
-18.93
-21.82
-25.29
-29.44
-34.26
-39.77
-46.09
-53.42
-61.68
-70.28
-77.87
-82.53
-82.23
-75.66
-62.82
-45.17
-25.30
-6.08
10.09
21.86
28.95
31.90
31.68
29.26
25.53
21.17
16.69
12.39
8.38
4.58
0.84
-3.01
-7.00
-11.07
-15.11
-19.11
-23.20
-27.76
-33.41
-40.62
-49.50
-59.38
-68.69
-75.15
-76.40
-70.72
-57.69
-38.43
-15.33
8.61
30.49
48.15
60.43
67.19
69.08
67.30
63.18
57.86
52.16
46.48
40.96
35.65
30.65
26.04
21.86
17.99
14.12
9.96
5.20
-0.43
-7.40
-16.37
-28.15
-43.10
-60.56
-78.40
-93.20
-101.26
-99.79
-88.00
-67.49
-41.55
-14.09
11.72
34.01
52.23
66.44
76.71
82.80
84.38
81.57
75.33
67.40
59.78
53.94
50.19
47.67
44.79
39.99
32.57
22.87
12.07
1.51
-7.90
-16.08
-23.77
-32.21
-42.75
-56.37
-73.40
-93.10
-113.52
-131.59
-143.66
-146.33
-137.59
-117.52
-88.31
-53.80
-18.31
14.38
41.78
62.83
77.59
86.71
91.07
91.60
89.18
84.81
79.46
74.00
69.02
64.81
61.25
58.01
54.70
50.96
46.66
41.76
36.29
30.28
23.65
16.29
8.09
-0.93
-10.64
-20.89
-31.66
-43.22
-56.00
-70.35
-86.05
-101.79
-115.13
-122.91
-122.14
-111.12
-90.15
-61.58
-29.13
3.34
32.72
57.27
76.42
90.26
99.11
103.34
103.54
100.64
95.86
90.51
85.53
81.33
77.87
74.82
71.93
69.12
66.38
63.64
60.60
56.78
51.59
44.66
35.92
25.76
14.92
4.22
-5.65
-14.46
-22.57
-30.87
-40.52
-52.49
-67.08
-83.52
-99.83
-113.07
-120.03
-118.16
-106.44
-85.75
-58.72
-28.89
0.26
26.10
47.15
62.92
73.56
79.49
81.36
79.98
76.45
71.92
67.44
63.59
60.47
57.76
55.03
52.00
48.64
45.07
41.36
37.34
32.56
26.48
18.67
9.10
-1.77
-13.17
-24.23
-34.34
-43.28
-51.32
-59.16
-67.82
-78.24
-90.99
-105.68
-120.81
-133.75
-141.45
-141.34
-132.20
-114.65
-90.90
-63.97
-36.78
-11.53
10.49
28.65
42.60
52.20
57.45
58.79
57.22
54.13
50.92
48.63
47.60
47.64
48.22
48.82
49.15
49.07
48.51
47.14
44.35
39.42
31.88
21.87
10.22
-1.67
-12.41
-21.08
-27.64
-32.84
-38.06
-44.80
-54.27
-67.02
-82.60
-99.38
-114.66
-125.09
-127.51
-119.96
-102.46
-77.14
-47.62
-17.92
8.69
30.48
47.21
59.67
68.90
75.62
80.14
82.41
82.46
80.53
77.18
73.09
68.87
64.85
61.03
57.30
53.47
49.51
45.45
41.28
36.88
31.99
26.38
19.92
12.79
5.36
-1.99
-9.13
-16.34
-24.31
-33.93
-45.87
-60.11
-75.46
-89.54
-99.18
-101.31
-94.06
-77.55
-53.91
-26.76
0.02
23.36
41.70
54.91
63.84
69.51
72.66
73.61
72.42
69.25
64.50
58.89
53.26
48.32
44.35
41.23
38.59
36.03
33.35
30.59
27.84
25.08
22.07
18.46
13.80
7.85
0.54
-8.07
-17.98
-29.49
-43.02
-58.89
-76.79
-95.31
-111.86
-123.17
-126.24
-119.44
-103.26
-80.33
-54.57
-29.91
-9.23
6.26
16.74
23.07
26.11
26.33
23.99
19.43
13.30
6.60
0.27
-5.09
-9.41
-13.07
-16.63
-20.64
-25.39
-31.02
-37.43
-44.43
-51.68
-58.78
-65.24
-70.70
-74.98
-78.27
-81.09
-84.15
-88.07
-93.03
-98.35
-102.42
-102.98
-97.75
-85.23
-65.45
-40.06
-11.95
15.57
39.77
59.01
72.88
81.87
86.84
88.62
87.89
85.26
81.39
76.97
72.70
69.02
66.02
63.43
60.77
57.61
53.76
49.30
44.60
40.03
35.78
31.70
27.32
22.06
15.40
6.99
-3.28
-15.25
-28.44
-41.80
-53.68
-61.88
-64.28
-59.46
-47.38
-29.54
-8.62
12.38
31.04
46.07
57.33
65.38
70.88
74.14
75.06
73.33
68.75
61.67
52.97
43.91
35.75
29.27
24.43
20.30
15.40
8.29
-1.76
-14.46
-28.58
-42.55
-55.13
-65.91
-75.38
-84.68
-95.27
-108.73
-126.61
-149.94
-178.52
-210.18
-240.57
-264.13
-275.85
-273.20
-257.08
-231.35
-201.05
-170.39
-141.53
-114.65
-88.91
-63.54
-38.31
-13.18
12.37
39.78
71.39
109.69
156.33
211.01
271.08
331.62
386.49
429.86
457.66
468.54
463.98
447.34
422.74
393.94
363.76
334.04
305.86
279.78
255.92
234.03
213.48
193.53
173.52
153.14
132.41
111.67
91.45
72.24
54.39
38.15
23.68
11.07
0.16
-9.58
-19.13
-29.92
-43.47
-60.92
-82.66
-108.17
-136.35
-165.97
-196.24
-227.02
-258.89
-292.96
-330.76
-374.05
-424.22
-481.15
-541.98
-600.48
-648.14
-676.53
-680.41
-659.80
-619.90
-568.95
-515.02
-463.40
-416.01
-372.36
-331.43
-292.91
-257.32
-225.19
-196.24
-169.15
-142.28
-114.50
-85.89
-57.66
-31.71
-9.60
8.08
21.89
33.38
44.35
56.18
69.43
83.73
98.11
111.64
123.86
135.00
146.00
158.04
172.13
188.68
207.41
227.48
247.86
267.93
287.58
307.33
328.01
350.31
374.60
400.90
429.24
459.81
492.67
527.11
561.14
591.55
614.65
627.47
628.60
618.28
597.74
568.34
531.04
486.71
436.74
383.43
329.78
278.62
231.65
188.95
149.29
111.03
73.09
35.55
-0.39
-32.73
-59.48
-79.48
-93.04
-102.15
-110.01
-120.19
-135.48
-157.10
-184.36
-214.92
-245.28
-271.23
-288.48
-293.11
-282.38
-255.61
-214.80
-164.56
-111.35
-61.96
-22.00
5.28
19.33
21.97
16.39
6.02
-6.40
-19.34
-32.49
-46.13
-60.56
-75.58
-90.54
-104.84
-118.71
-133.76
-152.88
-179.15
-214.33
-257.37
-303.75
-346.25
-377.01
-390.09
-383.48
-359.76
-324.76
-285.24
-246.60
-211.43
-179.68
-149.76
-119.82
-88.42
-54.61
-17.83
21.64
62.12
100.19
131.25
150.89
156.80
149.92
134.17
114.86
96.53
81.40
69.09
57.74
45.66
32.52
19.58
8.89
2.20
0.12
2.07
6.82
13.21
20.70
29.25
38.75
48.37
56.41
60.73
59.65
52.96
42.19
30.28
20.46
15.02
14.41
17.25
20.97
23.08
22.15
18.32
12.95
7.72
3.85
1.36
-0.66
-3.72
-9.22
-17.90
-29.47
-42.42
-54.07
-61.14
-60.64
-50.96
-32.71
-8.53
17.76
42.43
63.04
78.69
89.62
96.28
98.82
96.99
90.76
80.86
68.95
57.23
47.65
41.17
37.53
35.51
33.47
30.19
25.37
19.62
14.13
9.93
7.29
5.50
3.20
-1.16
-8.63
-19.43
-32.86
-47.44
-61.02
-71.12
-75.28
-71.68
-59.77
-40.70
-17.12
7.47
29.81
47.65
60.13
67.40
70.07
68.79
64.06
56.61
47.46
38.08
29.91
23.96
20.38
18.45
16.87
14.40
10.34
4.82
-1.33
-6.98
-11.37
-14.36
-16.59
-19.16
-23.16
-29.39
-38.09
-48.94
-60.86
-71.99
-79.81
-81.60
-75.37
-60.75
-39.41
-14.68
9.51
29.93
44.86
54.18
58.69
59.29
56.55
50.77
42.39
32.43
22.35
13.71
7.55
3.95
2.04
0.43
-2.20
-6.57
-12.51
-19.17
-25.48
-30.62
-34.40
-37.35
-40.42
-44.53
-50.35
-57.95
-66.78
-75.65
-82.74
-85.80
-82.65
-71.88
-53.58
-29.55
-2.94
22.63
44.27
60.46
71.20
77.39
80.04
79.82
76.96
71.75
64.83
57.35
50.60
45.49
42.07
39.53
36.67
32.42
26.49
19.48
12.52
6.76
2.75
0.19
-1.87
-4.73
-9.52
-16.94
-27.09
-39.35
-52.28
-63.61
-70.65
-70.86
-62.80
-46.89
-25.38
-1.69
20.63
39.04
52.44
60.94
65.15
65.57
62.36
55.63
45.90
34.39
22.87
13.20
6.63
3.55
3.36
4.81
6.51
7.39
6.98
5.40
3.18
0.82
-1.44
-3.82
-6.97
-11.70
-18.71
-28.24
-39.69
-51.52
-61.33
-66.36
-64.29
-54.09
-36.54
-14.09
9.91
32.15
50.34
63.42
71.34
74.53
73.53
68.83
61.16
51.65
41.73
32.85
26.01
21.43
18.53
16.30
13.78
10.45
6.45
2.39
-1.00
-3.32
-4.68
-5.69
-7.24
-10.22
-15.28
-22.82
-32.81
-44.64
-56.84
-67.02
-72.29
-70.06
-59.13
-40.38
-16.73
7.78
29.36
45.66
56.16
61.82
64.05
63.77
61.23
56.16
48.61
39.36
29.93
21.99
16.71
14.25
13.88
14.47
15.19
15.75
16.12
15.95
14.09
8.79
-1.74
-18.36
-40.49
-66.16
-92.68
-117.31
-137.66
-151.74
-157.84
-154.54
-141.22
-118.61
-89.10
-56.33
-24.30
3.69
25.77
41.45
51.15
55.59
55.43
51.40
44.50
36.23
28.31
22.14
18.36
16.62
15.87
14.94
13.03
9.99
6.23
2.30
-1.39
-4.83
-8.32
-12.36
-17.51
-24.17
-32.49
-41.93
-51.15
-58.05
-60.21
-55.76
-44.11
-26.36
-5.00
16.84
36.34
51.56
61.65
66.58
66.72
62.63
55.03
44.96
33.84
23.27
14.64
8.69
5.29
3.52
2.12
0.08
-2.92
-6.43
-9.68
-12.04
-13.61
-15.25
-18.27
-23.84
-32.50
-43.88
-56.63
-68.63
-77.28
-80.08
-75.35
-62.72
-43.48
-20.33
3.45
24.87
41.92
53.80
60.62
62.88
61.17
56.16
48.77
40.23
31.97
25.18
20.47
17.69
16.06
14.66
12.76
10.08
6.86
3.45
0.13
-3.18
-6.97
-12.00
-19.09
-28.76
-40.90
-54.35
-66.90
-75.59
-77.60
-71.19
-56.52
-35.70
-12.16
10.46
29.52
43.73
53.11
58.21
59.53
57.36
52.01
44.22
35.34
27.01
20.47
16.10
13.21
10.48
6.73
1.44
-4.93
-11.29
-16.61
-20.43
-23.09
-25.64
-29.44
-35.71
-45.11
-57.37
-71.21
-84.30
-93.68
-96.47
-90.82
-76.67
-55.86
-31.65
-7.70
13.01
28.72
38.94
43.99
44.44
40.88
33.99
24.67
14.10
3.53
-6.10
-14.41
-21.62
-28.38
-35.39
-43.21
-52.16
-62.34
-73.71
-86.27
-100.14
-115.70
-133.61
-154.75
-179.75
-208.39
-239.01
-268.24
-291.63
-304.98
-305.81
-294.43
-273.91
-248.94
-224.24
-203.11
-186.71
-174.59
-165.46
-158.19
-152.09
-146.86
-142.12
-137.04
-130.54
-121.50
-109.29
-93.94
-76.09
-56.56
-35.86
-14.00
9.23
33.62
58.09
80.51
98.17
108.69
110.56
103.44
87.89
65.03
36.48
4.71
-26.82
-53.85
-72.25
-79.41
-75.29
-62.56
-45.42
-28.16
-13.53
-2.24
6.72
15.16
24.94
37.41
53.22
71.88
91.43
108.47
118.65
118.25
105.67
82.37
52.50
21.20
-7.42
-31.71
-52.42
-71.55
-90.68
-109.96
-128.25
-144.03
-156.46
-165.86
-173.48
-180.51
-187.59
-194.37
-199.71
-202.35
-201.49
-197.09
-189.66
-179.74
-167.36
-151.82
-131.91
-106.48
-75.26
-39.14
-0.19
38.91
75.64
108.41
136.89
161.95
185.24
208.58
233.51
260.66
289.43
317.80
342.58
360.25
368.03
364.97
352.25
332.81
310.15
287.03
264.57
242.29
218.90
193.32
165.46
136.42
108.38
84.11
66.37
57.23
57.51
66.38
81.40
99.22
116.49
130.79
141.08
147.52
150.77
151.40
149.55
145.13
138.21
129.35
119.59
110.14
101.94
95.33
90.02
85.30
80.40
74.92
68.92
62.94
57.63
53.40
50.13
47.13
43.32
37.51
28.74
16.51
1.10
-16.31
-33.53
-47.70
-55.89
-55.97
-47.38
-31.21
-9.91
13.58
36.63
57.51
75.23
89.29
99.28
104.79
105.60
102.04
95.00
85.91
76.33
67.43
59.78
53.30
47.57
42.26
37.44
33.53
31.03
30.14
30.41
30.79
29.95
26.64
19.99
9.68
-4.01
-20.21
-37.33
-53.08
-64.78
-69.98
-67.12
-56.19
-38.70
-17.19
5.58
27.33
46.58
62.55
74.76
82.80
86.36
85.50
80.87
73.77
65.74
58.15
51.75
46.65
42.44
38.55
34.55
30.21
25.52
20.45
14.87
8.61
1.49
-6.49
-15.23
-24.50
-34.12
-43.96
-53.81
-63.08
-70.67
-75.13
-75.00
-69.50
-58.83
-44.19
-27.35
-10.06
6.38
21.26
34.22
44.97
53.20
58.70
61.62
62.62
62.69
62.84
63.70
65.22
66.80
67.51
66.49
63.35
58.25
51.92
45.36
39.48
34.73
30.92
27.13
21.98
13.95
1.88
-14.59
-34.67
-56.23
-76.10
-90.62
-96.74
-92.85
-79.44
-58.90
-34.79
-10.67
10.84
28.41
41.75
51.09
56.67
58.55
56.89
52.26
45.80
38.97
33.14
29.10
26.79
25.48
24.20
22.22
19.34
15.96
12.69
10.10
8.40
7.38
6.59
5.46
3.42
-0.02
-5.12
-11.71
-18.87
-24.76
-27.05
-23.56
-13.13
3.83
25.35
48.59
70.64
89.28
103.14
111.62
114.49
111.85
104.13
92.40
78.23
63.50
49.81
38.05
28.15
19.21
9.98
-0.60
-12.84
-26.19
-39.31
-50.54
-58.61
-63.06
-64.45
-64.21
-64.15
-65.82
-70.12
-76.93
-85.10
-92.63
-97.14
-96.50
-89.41
-75.97
-57.72
-37.16
-17.10
0.07
12.80
20.47
23.17
21.41
16.08
8.36
-0.27
-8.18
-14.07
-17.25
-17.95
-17.16
-16.23
-16.30
-17.92
-20.96
-24.84
-28.89
-32.74
-36.46
-40.49
-45.45
-51.94
-60.24
-70.16
-80.89
-90.94
-98.35
-101.10
-97.65
-87.42
-71.17
-50.72
-28.71
-7.78
9.86
22.87
30.84
34.12
33.67
30.73
26.73
22.96
20.44
19.62
20.27
21.60
22.63
22.61
21.42
19.70
18.47
18.66
20.45
23.07
24.95
24.24
19.57
10.57
-1.88
-15.83
-28.69
-37.95
-41.72
-39.17
-30.73
-17.78
-2.40
13.18
26.92
37.17
42.78
43.21
38.59
29.86
18.70
7.23
-2.50
-9.07
-12.11
-12.18
-10.46
-8.15
-6.03
-4.31
-2.81
-1.38
-0.08
0.57
-0.25
-3.40
-9.56
-18.92
-30.91
-44.23
-56.86
-66.40
-70.63
-68.14
-58.71
-43.53
-24.83
-5.31
12.43
26.37
35.30
38.80
37.24
31.66
23.65
15.05
7.54
2.19
-0.76
-1.89
-2.17
-2.51
-3.28
-4.37
-5.32
-5.84
-6.09
-6.68
-8.50
-12.33
-18.63
-27.31
-37.72
-48.58
-58.06
-64.00
-64.46
-58.27
-45.64
-28.19
-8.57
10.34
26.30
38.12
45.60
49.20
49.51
47.07
42.38
36.07
28.97
22.07
16.22
11.91
9.27
8.03
7.82
8.27
9.08
9.92
10.40
9.99
8.05
3.91
-2.91
-12.55
-24.56
-37.77
-50.36
-60.15
-65.09
-63.86
-56.39
-43.93
-28.70
-13.27
0.19
10.41
17.02
20.31
20.80
18.97
15.24
10.14
4.32
-1.44
-6.42
-10.19
-12.67
-14.04
-14.61
-14.66
-14.39
-14.03
-13.91
-14.46
-16.21
-19.74
-25.55
-33.88
-44.44
-56.14
-66.97
-74.35
-75.82
-69.90
-56.72
-38.04
-16.69
4.33
22.68
37.06
47.17
53.30
55.98
55.71
52.95
48.22
42.15
35.40
28.51
21.79
15.29
8.88
2.43
-4.08
-10.46
-16.41
-21.69
-26.24
-30.42
-34.97
-40.81
-48.74
-58.95
-70.68
-82.05
-90.49
-93.45
-89.30
-78.06
-61.34
-41.82
-22.29
-4.81
9.69
21.20
30.18
36.99
41.77
44.51
45.30
44.54
42.84
40.76
38.69
36.71
34.75
32.74
30.87
29.39
28.52
28.09
27.46
25.63
21.54
14.45
4.30
-8.35
-22.38
-36.30
-48.46
-57.19
-61.06
-59.13
-51.28
-38.37
-22.06
-4.48
12.33
26.74
37.69
44.58
47.12
45.34
39.75
31.45
22.16
13.86
8.38
6.78
9.12
14.34
20.68
26.20
29.46
29.84
27.65
23.78
19.19
14.50
9.74
4.36
-2.39
-11.11
-21.84
-33.79
-45.31
-54.24
-58.37
-56.23
-47.49
-33.33
-15.97
1.84
17.67
29.87
37.77
41.52
41.69
39.07
34.54
29.10
23.82
19.70
17.37
16.87
17.58
18.41
18.20
16.22
12.41
7.39
2.21
-2.15
-5.21
-7.06
-8.44
-10.33
-13.69
-19.09
-26.50
-35.10
-43.30
-48.96
-49.95
-44.83
-33.42
-17.00
2.01
20.83
37.25
50.11
59.37
65.62
69.46
71.17
70.73
68.09
63.55
57.83
51.90
46.69
42.70
39.89
37.71
35.32
31.92
27.10
20.98
14.17
7.41
1.19
-4.52
-10.28
-16.91
-25.11
-35.20
-47.02
-59.88
-72.64
-83.68
-91.10
-92.95
-87.88
-75.71
-57.73
-36.42
-14.79
4.55
19.97
30.96
37.92
41.62
42.81
42.03
39.69
36.21
32.15
28.20
24.90
22.49
20.70
18.91
16.41
12.92
8.73
4.71
1.87
0.83
1.33
2.23
1.84
-1.44
-8.59
-19.61
-33.52
-48.47
-62.21
-72.33
-76.85
-74.61
-65.60
-51.08
-33.25
-14.63
2.68
17.46
29.58
39.59
48.11
55.38
61.14
64.91
66.49
66.27
65.08
63.72
62.49
60.77
57.36
51.07
41.53
29.60
17.23
6.71
-0.32
-3.51
-3.85
-3.12
-3.08
-4.84
-8.64
-14.06
-20.35
-26.54
-31.32
-33.00
-29.67
-19.86
-3.36
18.35
42.20
64.42
81.73
92.26
95.81
93.41
86.61
76.81
65.05
52.12
38.90
26.36
15.50
6.80
-0.08
-6.32
-13.56
-23.23
-35.91
-51.10
-67.38
-83.00
-96.46
-106.89
-114.11
-118.50
-120.74
-121.55
-121.54
-121.07
-120.11
-118.21
-114.58
-108.36
-99.00
-86.53
-71.66
-55.57
-39.59
-24.90
-12.34
-2.34
5.07
10.20
13.71
16.64
20.17
25.32
32.53
41.37
50.46
57.75
61.04
58.68
50.13
36.22
19.00
1.18
-14.66
-26.81
-34.81
-39.41
-42.07
-44.30
-47.17
-51.06
-55.76
-60.58
-64.60
-66.65
-65.45
-59.83
-49.10
-33.53
-14.45
5.99
25.40
41.80
54.13
62.25
66.64
68.01
66.92
63.82
59.14
53.41
47.33
41.54
36.41
31.86
27.46
22.61
16.89
10.29
3.26
-3.48
-9.23
-13.58
-16.61
-18.92
-21.43
-25.18
-30.90
-38.64
-47.52
-55.81
-61.27
-62.00
-56.93
-46.41
-32.00
-16.00
-0.64
12.58
23.12
31.24
37.46
42.14
45.24
46.47
45.61
42.82
38.71
34.15
29.93
26.48
23.78
21.50
19.35
17.25
15.32
13.73
12.39
10.75
7.90
2.83
-5.16
-16.20
-29.59
-43.90
-57.15
-67.14
-71.95
-70.40
-62.46
-49.35
-33.25
-16.72
-2.06
9.14
16.20
19.25
18.95
16.30
12.42
8.42
5.20
3.31
2.85
3.49
4.71
5.84
6.25
5.35
2.73
-1.75
-7.72
-14.38
-20.74
-26.05
-30.24
-34.03
-38.55
-44.75
-52.72
-61.30
-68.34
-71.34
-68.29
-58.42
-42.55
-22.75
-1.83
17.57
33.53
45.17
52.54
56.20
56.87
55.23
51.95
47.77
43.53
40.01
37.66
36.48
36.03
35.71
35.08
34.09
33.03
32.29
32.04
32.17
32.27
31.83
30.45
27.95
24.43
20.34
16.57
14.51
15.95
22.59
35.50
54.46
78.02
103.99
130.40
156.21
181.25
205.28
227.08
243.90
252.15
249.06
234.08
209.50
179.64
148.98
120.46
94.68
70.49
46.26
21.15
-4.49
-29.68
-53.83
-77.50
-102.34
-130.19
-162.06
-197.28
-233.41
-266.64
-292.62
-307.33
-307.94
-293.67
-266.23
-229.82
-190.32
-153.83
-125.01
-105.57
-93.70
-84.70
-72.29
-50.27
-14.16
37.45
101.99
172.93
241.09
297.01
333.69
348.65
344.22
326.09
300.91
274.03
248.39
224.75
202.79
182.10
162.67
144.70
128.02
111.83
94.75
75.16
51.76
23.57
-10.05
-49.74
-96.25
-149.78
-208.77
-268.94
-323.56
-365.00
-387.31
-388.37
-370.48
-338.74
-298.47
-253.19
-204.62
-154.35
-105.68
-64.15
-36.09
-26.34
-36.35
-63.72
-103.06
-147.48
-189.80
-223.62
-244.54
-250.99
-244.52
-228.85
-207.82
-183.55
-156.09
-124.67
-89.59
-53.21
-19.01
10.57
35.57
58.14
80.55
103.03
123.15
137.40
143.57
142.52
137.69
132.92
130.16
128.57
125.42
118.07
105.70
89.77
73.36
59.67
50.64
46.19
44.18
41.00
32.61
15.44
-12.62
-51.28
-97.23
-144.29
-184.46
-210.05
-216.02
-201.50
-169.76
-126.70
-78.67
-30.59
14.58
55.39
91.00
120.72
144.16
161.70
174.57
184.41
192.41
198.69
202.30
201.83
196.26
185.44
170.26
152.27
133.14
114.01
95.11
75.73
54.65
31.04
5.26
-20.94
-45.09
-65.21
-80.68
-92.12
-100.48
-105.96
-107.55
-103.73
-93.86
-79.22
-63.00
-49.24
-41.21
-40.21
-45.46
-54.81
-65.76
-76.30
-85.03
-90.90
-93.14
-91.51
-86.97
-82.11
-80.72
-86.32
-100.31
-120.91
-143.84
-164.61
-181.01
-194.15
-207.46
-223.93
-243.88
-264.46
-281.22
-290.59
-291.37
-284.58
-271.85
-254.02
-230.98
-202.81
-171.22
-139.83
-113.03
-94.09
-83.66
-79.53
-77.74
-74.12
-65.71
-51.27
-31.14
-6.66
20.40
48.23
75.06
99.18
118.93
132.89
140.16
140.84
136.13
128.20
119.61
112.53
108.15
106.47
106.76
108.21
110.52
113.93
118.81
125.13
132.12
138.41
142.72
144.47
144.13
142.98
142.48
143.59
146.42
150.33
154.31
157.70
160.42
163.01
166.14
170.07
174.34
177.90
179.79
179.88
179.11
179.02
180.54
183.07
184.31
181.20
171.54
155.44
135.50
115.61
98.87
85.57
72.70
55.47
30.31
-2.20
-36.38
-63.39
-75.48
-70.29
-52.83
-33.52
-23.53
-29.53
-50.87
-80.58
-109.32
-129.95
-140.32
-143.05
-143.55
-147.55
-159.57
-182.17
-215.61
-257.45
-302.30
-342.87
-371.76
-384.03
-378.98
-360.18
-333.85
-306.38
-282.58
-264.98
-254.46
-250.98
-254.03
-262.29
-273.35
-283.74
-289.95
-289.56
-282.19
-269.38
-253.78
-237.89
-222.95
-208.68
-193.66
-176.34
-155.92
-132.79
-108.41
-84.65
-63.07
-44.33
-28.13
-13.49
0.80
15.71
31.71
48.58
65.34
80.58
93.00
102.25
109.51
117.39
129.15
147.39
172.87
204.13
237.97
270.66
299.08
321.44
337.14
346.36
349.64
347.73
341.68
332.96
323.25
314.06
306.33
300.11
294.74
289.24
282.90
275.70
268.36
262.03
257.62
255.36
254.42
253.22
250.00
243.69
234.45
223.65
213.23
204.62
198.07
192.47
186.00
177.17
165.51
151.68
136.74
121.19
104.37
84.41
58.96
26.06
-15.19
-64.18
-118.75
-175.28
-229.01
-274.83
-308.42
-327.44
-332.21
-325.49
-311.53
-294.65
-278.27
-264.58
-254.83
-249.55
-248.63
-250.91
-253.87
-253.85
-246.84
-229.48
-199.83
-157.72
-104.94
-45.32
15.40
70.35
113.35
141.24
155.46
161.77
167.54
178.08
193.71
209.80
219.56
218.16
205.50
186.16
166.46
150.87
139.81
130.24
118.26
101.70
81.34
59.93
40.07
22.62
6.54
-9.65
-26.17
-41.04
-50.70
-51.66
-42.34
-24.00
-0.26
24.33
45.90
62.33
73.33
79.85
83.20
84.37
83.80
81.60
77.72
72.23
65.42
57.68
49.44
41.10
32.94
25.19
18.03
11.52
5.56
-0.11
-5.95
-12.61
-20.63
-30.26
-41.12
-51.99
-60.94
-65.77
-64.67
-56.95
-43.30
-25.70
-6.73
11.15
26.15
37.40
44.77
48.57
49.33
47.69
44.40
40.30
36.23
32.75
30.09
28.12
26.48
24.77
22.77
20.48
18.03
15.54
12.97
10.02
6.19
0.91
-6.29
-15.48
-26.10
-36.93
-46.11
-51.58
-51.62
-45.45
-33.60
-17.84
-0.72
15.23
28.11
37.05
42.11
43.88
43.10
40.38
36.23
31.16
25.78
20.71
16.39
12.93
10.07
7.32
4.28
0.79
-3.03
-6.89
-10.59
-14.17
-17.99
-22.65
-28.72
-36.51
-45.75
-55.43
-63.81
-68.82
-68.58
-62.14
-49.85
-33.41
-15.32
1.82
16.05
26.40
32.81
35.76
35.91
33.87
30.27
25.75
21.07
16.86
13.51
10.98
8.87
6.66
3.99
0.81
-2.55
-5.68
-8.27
-10.42
-12.62
-15.66
-20.32
-27.03
-35.56
-44.90
-53.34
-58.83
-59.58
-54.61
-44.14
-29.56
-13.06
3.10
17.11
27.90
35.11
38.84
39.40
37.22
32.89
27.24
21.28
15.95
11.83
9.02
7.09
5.38
3.35
0.74
-2.30
-5.41
-8.27
-10.85
-13.46
-16.63
-20.98
-26.91
-34.44
-43.00
-51.51
-58.36
-61.77
-60.32
-53.35
-41.36
-25.94
-9.35
6.18
18.97
28.25
33.98
36.58
36.53
34.22
30.08
24.69
18.85
13.41
9.02
5.88
3.70
1.86
-0.25
-2.94
-6.10
-9.28
-12.03
-14.19
-16.09
-18.50
-22.31
-28.25
-36.38
-45.98
-55.45
-62.65
-65.42
-62.31
-53.08
-38.88
-21.94
-4.81
10.36
22.30
30.76
36.05
38.67
38.95
37.15
33.56
28.80
23.70
19.17
15.79
13.61
12.13
10.60
8.33
5.07
1.05
-3.19
-7.09
-10.40
-13.33
-16.46
-20.52
-26.13
-33.50
-42.31
-51.57
-59.76
-65.03
-65.68
-60.61
-49.82
-34.52
-16.87
0.68
16.01
27.85
35.86
40.33
41.82
40.83
37.80
33.19
27.68
22.10
17.30
13.81
11.67
10.39
9.21
7.42
4.66
1.05
-2.98
-6.95
-10.58
-14.01
-17.67
-22.16
-27.94
-35.25
-43.89
-53.14
-61.72
-67.95
-70.08
-66.71
-57.45
-43.11
-25.63
-7.47
9.15
22.84
33.11
40.12
44.19
45.49
44.03
39.97
33.91
26.95
20.42
15.41
12.35
10.90
10.16
9.09
6.97
3.61
-0.67
-5.34
-9.89
-14.13
-18.20
-22.55
-27.70
-34.08
-41.85
-50.78
-60.08
-68.43
-74.13
-75.47
-71.18
-60.95
-45.64
-27.12
-7.76
10.18
25.11
36.33
43.78
47.81
48.83
47.25
43.61
38.69
33.50
29.10
26.21
24.92
24.56
23.94
21.88
17.73
11.77
5.09
-0.85
-4.93
-6.85
-7.26
-7.53
-9.19
-13.35
-20.38
-29.70
-39.83
-48.65
-53.86
-53.63
-47.15
-35.06
-19.28
-2.40
13.11
25.66
34.67
40.36
43.17
43.46
41.40
37.29
31.77
25.82
20.51
16.53
13.88
11.93
9.76
6.65
2.43
-2.50
-7.37
-11.49
-14.62
-17.07
-19.59
-23.08
-28.26
-35.43
-44.35
-54.15
-63.36
-70.18
-72.73
-69.62
-60.37
-45.68
-27.34
-7.76
10.68
26.21
37.84
45.35
48.99
49.20
46.56
41.77
35.76
29.55
24.12
20.03
17.37
15.71
14.32
12.60
10.20
7.26
4.17
1.34
-1.11
-3.52
-6.65
-11.44
-18.63
-28.44
-40.24
-52.51
-62.95
-69.13
-69.07
-61.94
-48.38
-30.40
-10.71
8.03
23.91
36.01
44.22
48.89
50.47
49.36
46.06
41.27
35.94
31.01
27.11
24.29
22.07
19.74
16.68
12.66
7.91
2.86
-2.05
-6.66
-11.18
-16.08
-21.97
-29.37
-38.44
-48.78
-59.31
-68.23
-73.39
-72.90
-65.76
-52.30
-34.15
-13.76
6.24
23.72
37.35
46.66
51.79
53.13
51.27
46.98
41.25
35.19
29.79
25.69
22.89
20.88
18.88
16.29
12.93
9.14
5.45
2.22
-0.64
-3.78
-8.06
-14.29
-22.90
-33.74
-45.98
-58.13
-68.12
-73.68
-72.87
-64.76
-49.85
-30.14
-8.54
11.91
28.92
41.36
49.12
52.75
52.96
50.46
45.95
40.29
34.43
29.23
25.16
22.18
19.77
17.29
14.30
10.76
6.99
3.41
0.26
-2.62
-5.79
-10.11
-16.41
-25.14
-35.98
-47.62
-57.80
-63.89
-63.63
-56.04
-41.81
-23.20
-3.23
15.24
30.29
41.12
47.83
50.90
50.81
47.99
43.00
36.68
30.13
24.38
20.08
17.26
15.41
13.82
11.91
9.44
6.53
3.43
0.27
-3.09
-7.15
-12.57
-19.94
-29.41
-40.31
-51.00
-59.14
-62.28
-58.70
-48.10
-31.83
-12.51
6.84
23.64
36.35
44.48
48.32
48.53
45.83
40.96
34.75
28.11
21.92
16.82
13.01
10.24
8.01
5.77
3.20
0.24
-2.98
-6.28
-9.66
-13.36
-17.93
-23.99
-31.95
-41.59
-51.75
-60.31
-64.70
-62.75
-53.51
-37.84
-18.18
2.21
20.27
34.00
42.68
46.61
46.70
43.93
39.20
33.37
27.27
21.61
16.85
13.03
9.81
6.80
3.68
0.55
-2.19
-4.12
-5.09
-5.43
-6.08
-8.24
-13.05
-21.02
-31.61
-43.08
-52.81
-57.94
-56.33
-47.33
-32.07
-13.18
6.07
22.81
35.18
42.58
45.39
44.52
40.99
35.79
29.83
23.97
18.88
14.90
11.90
9.45
7.00
4.20
1.02
-2.30
-5.50
-8.47
-11.46
-15.03
-19.88
-26.57
-35.21
-45.07
-54.55
-61.36
-63.11
-58.17
-46.31
-29.03
-9.11
10.16
26.01
36.82
42.29
43.18
40.74
36.26
30.79
25.12
19.76
15.10
11.30
8.35
6.10
4.24
2.48
0.58
-1.53
-3.82
-6.28
-9.07
-12.65
-17.66
-24.76
-34.10
-44.92
-55.41
-63.00
-65.09
-60.03
-47.90
-30.56
-11.15
6.96
21.19
30.35
34.60
34.91
32.55
28.59
23.84
18.91
14.25
10.18
6.73
3.66
0.60
-2.72
-6.37
-10.12
-13.76
-17.16
-20.48
-24.12
-28.58
-34.29
-41.44
-49.90
-58.92
-67.09
-72.44
-72.78
-66.40
-52.72
-32.66
-8.58
16.29
38.69
56.07
67.12
71.95
71.84
68.76
64.83
61.66
59.98
59.68
60.12
60.59
60.60
59.99
58.80
57.33
56.35
57.32
62.12
72.13
87.06
104.24
119.18
127.46
127.07
119.75
110.38
104.56
105.75
113.51
123.93
131.84
133.61
128.73
119.70
110.50
104.59
103.68
107.54
114.56
122.50
128.96
131.57
128.12
116.78
96.52
67.44
31.09
-9.47
-50.00
-85.76
-112.62
-128.39
-133.88
-133.12
-132.40
-138.19
-154.63
-181.69
-214.90
-246.81
-269.56
-277.66
-269.56
-247.81
-217.70
-185.28
-155.65
-131.87
-114.89
-103.92
-97.16
-92.33
-87.27
-80.42
-71.18
-60.25
-49.31
-40.37
-34.88
-32.79
-32.39
-30.75
-24.84
-12.70
5.75
28.80
53.39
76.20
94.53
107.08
114.50
119.58
126.77
140.76
164.44
197.10
233.75
266.34
286.56
288.88
272.38
240.54
199.14
153.53
106.79
59.71
12.19
-34.93
-79.03
-116.35
-143.73
-160.32
-168.13
-170.93
-172.15
-172.82
-171.09
-163.36
-146.82
-121.69
-91.90
-63.71
-43.13
-33.42
-34.14
-42.07
-53.06
-63.90
-72.94
-79.63
-83.59
-84.04
-79.99
-71.03
-58.10
-43.49
-30.09
-20.42
-15.63
-15.27
-17.66
-20.65
-22.41
-21.96
-19.21
-14.95
-10.46
-7.07
-5.76
-6.85
-9.79
-13.36
-16.05
-16.69
-14.99
-11.86
-9.22
-9.45
-14.52
-25.44
-41.80
-61.93
-83.25
-102.83
-117.97
-126.58
-127.63
-121.26
-108.79
-92.49
-75.13
-59.36
-47.21
-39.77
-37.14
-38.68
-43.24
-49.49
-56.02
-61.41
-64.33
-63.75
-59.25
-51.28
-41.25
-31.10
-22.80
-17.61
-15.79
-16.86
-20.13
-25.41
-33.28
-45.00
-61.70
-83.58
-109.29
-135.89
-159.61
-176.89
-185.63
-185.85
-179.60
-170.27
-161.34
-155.29
-152.94
-153.47
-154.93
-155.07
-152.05
-144.95
-133.82
-119.51
-103.30
-86.57
-70.57
-56.23
-44.16
-34.56
-27.30
-21.83
-17.33
-12.66
-6.51
2.30
14.37
29.30
45.44
60.19
70.88
75.95
75.74
72.41
68.95
67.61
68.86
71.41
73.42
74.00
74.32
77.32
86.22
102.74
125.92
152.42
177.96
199.12
214.28
223.45
227.32
226.42
221.10
212.29
202.29
194.72
193.38
200.39
214.78
232.41
247.51
255.12
252.95
241.95
225.08
205.27
183.74
159.52
130.53
95.55
55.87
15.80
-18.47
-41.19
-49.27
-43.39
-27.39
-6.56
14.42
32.78
47.61
59.08
67.22
71.49
71.04
65.53
55.82
44.05
33.05
25.18
21.48
21.30
22.68
23.34
21.54
16.81
9.85
2.16
-4.88
-10.57
-15.17
-19.70
-25.48
-33.60
-44.54
-58.01
-72.94
-87.58
-99.65
-106.76
-106.91
-99.07
-83.62
-62.32
-37.85
-13.03
9.87
29.46
45.15
56.81
64.43
68.07
67.99
64.91
59.99
54.65
50.11
46.99
45.16
43.85
42.08
39.05
34.50
28.80
22.70
16.94
11.86
7.23
2.31
-3.85
-12.03
-22.56
-35.07
-48.55
-61.31
-71.32
-76.46
-75.08
-66.57
-51.58
-32.03
-10.63
9.95
27.70
41.58
51.40
57.41
59.95
59.37
56.15
51.15
45.51
40.45
36.85
34.86
33.89
32.97
31.19
28.12
23.94
19.30
14.86
10.99
7.56
3.98
-0.62
-7.14
-16.16
-27.73
-41.04
-54.37
-65.20
-70.88
-69.39
-60.15
-44.26
-24.28
-3.30
15.95
31.79
43.65
51.71
56.42
58.14
57.14
53.76
48.66
42.79
37.16
32.53
29.15
26.71
24.56
22.02
18.70
14.67
10.43
6.57
3.44
0.88
-1.77
-5.46
-11.07
-19.04
-29.13
-40.34
-51.04
-59.22
-63.00
-61.06
-53.16
-40.14
-23.85
-6.58
9.58
23.16
33.47
40.46
44.31
45.26
43.52
39.44
33.71
27.41
21.73
17.70
15.72
15.44
15.92
16.04
14.98
12.55
9.24
5.78
2.76
0.30
-1.98
-4.78
-8.79
-14.50
-22.00
-30.91
-40.37
-48.97
-54.99
-56.75
-53.25
-44.51
-31.75
-16.98
-2.32
10.55
20.77
28.11
32.69
34.69
34.25
31.67
27.48
22.58
17.95
14.40
12.27
11.34
11.03
10.58
9.46
7.49
4.91
2.12
-0.42
-2.52
-4.38
-6.49
-9.55
-14.19
-20.72
-28.86
-37.76
-45.90
-51.45
-52.79
-48.96
-40.13
-27.53
-13.19
0.83
12.88
22.10
28.32
31.80
32.86
31.79
28.86
24.51
19.44
14.51
10.47
7.71
6.10
5.11
3.94
1.98
-1.07
-5.08
-9.56
-13.95
-17.76
-20.85
-23.38
-25.80
-28.61
-32.32
-37.12
-42.80
-48.53
-52.94
-54.46
-51.77
-44.39
-32.91
-18.95
-4.57
8.35
18.55
25.60
29.61
30.91
29.81
26.62
21.79
16.05
10.38
5.70
2.59
1.04
0.46
-0.05
-1.30
-3.63
-6.84
-10.34
-13.47
-15.86
-17.62
-19.29
-21.63
-25.35
-30.79
-37.72
-45.30
-52.09
-56.36
-56.58
-51.90
-42.51
-29.68
-15.37
-1.69
9.79
18.26
23.69
26.44
26.99
25.74
23.05
19.34
15.28
11.58
8.84
7.24
6.53
6.10
5.27
3.68
1.41
-1.04
-3.03
-4.15
-4.43
-4.43
-4.97
-6.89
-10.75
-16.61
-23.91
-31.57
-38.02
-41.61
-40.94
-35.44
-25.63
-13.08
-0.02
11.41
19.72
24.36
25.61
24.19
20.79
16.02
10.42
4.64
-0.52
-4.29
-6.33
-6.84
-6.61
-6.63
-7.57
-9.49
-11.75
-13.50
-14.04
-13.28
-11.75
-10.34
-9.95
-11.11
-13.90
-17.80
-21.81
-24.43
-23.93
-18.78
-8.26
7.17
25.90
45.68
64.43
80.85
94.48
105.39
113.64
118.90
120.64
118.66
113.47
106.45
99.24
93.15
88.51
84.60
80.17
74.14
66.13
56.69
46.98
38.21
31.11
25.68
21.21
16.55
10.27
0.95
-12.46
-30.29
-51.62
-74.21
-94.74
-109.77
-116.83
-115.37
-106.93
-94.53
-81.54
-70.61
-63.00
-58.69
-56.92
-56.82
-57.86
-59.84
-62.59
-65.79
-68.85
-71.04
-71.96
-71.63
-70.66
-69.96
-70.28
-71.97
-74.85
-78.35
-81.92
-85.32
-88.85
-93.18
-99.10
-107.18
-117.52
-129.52
-141.79
-152.23
-158.38
-158.01
-149.87
-134.30
-113.25
-89.75
-66.96
-47.21
-31.46
-19.47
-10.49
-3.96
0.17
1.63
0.28
-3.42
-8.35
-13.10
-16.59
-18.39
-18.85
-18.72
-18.76
-19.32
-20.27
-21.28
-22.10
-22.96
-24.49
-27.60
-33.08
-41.38
-52.45
-65.66
-79.83
-93.18
-103.53
-108.58
-106.57
-96.85
-80.32
-59.26
-36.60
-15.12
3.38
18.22
29.57
37.82
43.10
45.26
44.10
39.74
32.94
24.97
17.22
10.74
5.83
2.09
-1.23
-4.72
-8.39
-11.64
-13.59
-13.59
-11.59
-8.23
-4.68
-2.15
-1.62
-3.65
-8.30
-15.08
-22.84
-29.71
-33.36
-31.61
-23.18
-8.17
11.88
34.61
57.62
79.15
98.33
114.74
127.95
137.28
141.87
141.28
136.00
127.47
117.73
108.67
101.33
95.74
91.14
86.56
81.37
75.60
69.77
64.48
60.06
56.25
52.36
47.37
40.31
30.41
17.37
1.53
-15.88
-32.75
-46.37
-54.05
-53.99
-45.90
-31.25
-12.76
6.40
23.64
37.50
47.68
54.59
58.80
60.60
60.11
57.44
52.99
47.61
42.29
37.87
34.72
32.64
31.08
29.47
27.49
25.21
22.88
20.70
18.59
16.18
12.85
7.97
1.06
-8.14
-19.60
-32.77
-46.49
-58.89
-67.59
-70.33
-65.72
-53.77
-36.06
-15.29
5.62
24.30
39.40
50.59
58.01
61.92
62.45
59.78
54.41
47.34
39.96
33.63
29.15
26.53
24.99
23.38
20.67
16.43
10.95
5.03
-0.48
-5.09
-8.90
-12.50
-16.81
-22.67
-30.63
-40.72
-52.28
-63.98
-73.85
-79.74
-79.73
-72.88
-59.50
-41.17
-20.30
0.67
19.85
36.15
49.19
58.96
65.44
68.58
68.46
65.50
60.58
54.92
49.64
45.45
42.31
39.62
36.52
32.36
27.00
20.86
14.64
9.01
4.28
0.23
-3.76
-8.56
-15.01
-23.67
-34.62
-47.19
-59.91
-70.59
-76.76
-76.33
-68.33
-53.26
-33.10
-10.66
11.23
30.48
46.07
57.95
66.51
72.15
75.06
75.28
72.98
68.72
63.38
57.97
53.23
49.43
46.22
42.97
38.98
33.99
28.17
22.08
16.31
11.20
6.62
1.99
-3.42
-10.29
-19.01
-29.61
-41.73
-54.56
-66.73
-76.37
-81.43
-80.20
-71.99
-57.48
-38.64
-18.17
1.34
18.13
31.50
41.54
48.72
53.36
55.51
55.18
52.62
48.53
43.99
40.08
37.48
36.20
35.58
34.67
32.64
29.17
24.57
19.52
14.75
10.67
7.17
3.76
-0.23
-5.37
-12.03
-20.33
-30.07
-40.64
-50.87
-58.98
-62.95
-61.13
-52.84
-38.90
-21.45
-3.28
13.11
26.15
35.42
41.25
44.21
44.67
42.75
38.65
32.92
26.62
21.00
17.10
15.34
15.35
16.20
16.81
16.43
14.85
12.41
9.72
7.35
5.45
3.79
1.80
-1.20
-5.80
-12.38
-21.03
-31.40
-42.55
-52.94
-60.61
-63.65
-60.90
-52.40
-39.53
-24.49
-9.53
3.75
14.71
23.45
30.25
35.14
37.78
37.87
35.49
31.37
26.75
22.85
20.38
19.22
18.56
17.38
14.97
11.24
6.69
2.02
-2.21
-5.87
-9.31
-13.17
-18.15
-24.83
-33.53
-44.11
-55.82
-67.25
-76.43
-81.23
-80.06
-72.40
-59.09
-42.13
-23.97
-6.78
8.04
20.04
29.28
35.96
40.09
41.57
40.41
37.02
32.23
27.07
22.36
18.44
15.12
11.91
8.29
4.02
-0.90
-6.19
-11.55
-16.77
-21.85
-26.99
-32.57
-39.04
-46.87
-56.29
-67.14
-78.76
-89.90
-98.93
-104.14
-104.24
-98.62
-87.60
-72.30
-54.31
-35.25
-16.49
0.94
16.13
28.17
36.08
39.16
37.25
31.15
22.47
13.21
5.10
-1.07
-5.52
-9.21
-13.16
-17.84
-22.91
-27.42
-30.32
-30.95
-29.31
-26.02
-22.06
-18.46
-16.06
-15.27
-15.94
-17.25
-17.73
-15.70
-9.73
0.76
15.20
32.08
49.37
65.25
78.47
88.55
95.47
99.45
100.74
99.70
96.90
93.20
89.62
87.00
85.75
85.70
86.18
86.28
85.31
82.91
79.19
74.55
69.36
63.80
57.74
50.77
42.44
32.39
20.65
7.66
-5.56
-17.64
-26.99
-32.15
-32.18
-26.98
-17.34
-4.72
9.18
22.83
35.26
46.06
55.21
62.73
68.49
72.09
73.10
71.29
66.84
60.33
52.52
44.09
35.36
26.41
17.16
7.67
-1.72
-10.57
-18.51
-25.59
-32.31
-39.51
-47.99
-58.21
-70.01
-82.60
-94.66
-104.51
-110.49
-111.24
-106.17
-95.60
-80.84
-63.81
-46.62
-31.00
-18.07
-8.31
-1.71
1.97
3.19
2.66
1.26
-0.00
-0.32
0.61
2.51
4.63
6.17
6.58
5.76
3.93
1.45
-1.46
-4.83
-8.91
-14.00
-20.37
-28.06
-36.75
-45.61
-53.28
-58.05
-58.28
-52.99
-42.24
-27.24
-10.03
7.17
22.52
34.89
43.89
49.61
52.40
52.75
51.24
48.55
45.45
42.56
40.22
38.42
36.84
35.09
32.86
30.06
26.75
23.07
19.03
14.48
9.11
2.52
-5.63
-15.47
-26.78
-38.80
-50.22
-59.34
-64.50
-64.61
-59.53
-50.25
-38.64
-26.85
-16.67
-9.19
-4.68
-2.84
-3.14
-5.11
-8.39
-12.61
-17.30
-21.86
-25.63
-28.12
-29.10
-28.66
-27.17
-25.06
-22.71
-20.42
-18.42
-17.01
-16.67
-17.99
-21.52
-27.52
-35.63
-44.75
-53.11
-58.60
-59.39
-54.50
-44.22
-30.10
-14.52
0.08
11.81
19.78
24.01
25.07
23.64
20.26
15.33
9.29
2.66
-3.97
-10.11
-15.51
-20.17
-24.25
-27.79
-30.73
-32.85
-34.07
-34.54
-34.78
-35.60
-37.85
-42.18
-48.70
-56.79
-65.07
-71.52
-74.10
-71.29
-62.65
-49.03
-32.38
-15.12
0.54
13.21
22.44
28.59
32.36
34.40
35.16
34.89
33.77
32.00
29.80
27.38
24.78
21.99
18.96
15.70
12.33
8.94
5.48
1.66
-3.08
-9.40
-17.85
-28.59
-41.13
-54.21
-65.85
-73.78
-76.00
-71.42
-60.34
-44.46
-26.31
-8.50
7.04
19.39
28.51
34.83
38.82
40.69
40.57
38.69
35.57
31.92
28.45
25.54
23.13
20.83
18.17
14.94
11.21
7.39
3.85
0.71
-2.36
-6.09
-11.39
-18.96
-28.85
-40.25
-51.49
-60.33
-64.59
-62.75
-54.49
-40.79
-23.67
-5.53
11.54
26.24
38.14
47.38
54.21
58.64
60.49
59.63
56.31
51.35
46.00
41.42
38.28
36.49
35.33
33.89
31.52
28.10
23.93
19.51
15.15
10.82
6.20
0.87
-5.48
-12.93
-21.38
-30.67
-40.51
-50.33
-59.04
-65.04
-66.53
-62.10
-51.35
-35.25
-15.92
4.04
22.34
37.57
49.34
57.90
63.66
66.88
67.65
66.09
62.63
57.99
53.07
48.61
45.03
42.34
40.26
38.46
36.62
34.53
31.98
28.77
24.74
19.88
14.33
8.33
2.15
-4.00
-10.08
-16.17
-22.49
-29.33
-37.06
-45.85
-55.40
-64.72
-72.07
-75.38
-72.89
-63.92
-49.19
-30.67
-10.95
7.59
23.37
35.82
45.01
51.31
55.04
56.44
55.76
53.43
50.12
46.51
43.16
40.27
37.79
35.47
33.12
30.68
28.16
25.54
22.67
19.29
15.12
10.00
4.05
-2.40
-8.82
-14.77
-19.97
-24.46
-28.53
-32.71
-37.52
-43.34
-50.12
-57.10
-62.95
-65.84
-64.07
-56.65
-43.69
-26.50
-7.19
11.94
29.08
43.12
53.70
60.92
65.06
66.51
65.78
63.48
60.39
57.21
54.43
52.18
50.28
48.42
46.40
44.20
41.97
39.82
37.76
35.50
32.59
28.58
23.24
16.69
9.39
1.98
-4.98
-11.22
-16.92
-22.64
-29.14
-37.09
-46.65
-57.20
-67.33
-75.05
-78.41
-76.12
-68.01
-55.19
-39.70
-23.81
-9.37
2.61
11.91
18.79
23.57
26.45
27.42
26.57
24.18
20.86
17.34
14.27
11.90
9.96
7.79
4.57
-0.28
-6.87
-14.69
-22.84
-30.37
-36.84
-42.48
-48.22
-55.30
-64.57
-76.06
-88.82
-101.29
-111.87
-119.33
-122.95
-122.27
-116.93
-106.69
-91.80
-73.20
-52.38
-30.61
-8.37
14.82
39.68
66.11
92.43
115.61
132.52
141.45
143.03
139.94
135.58
132.52
131.59
131.96
132.00
130.46
127.10
122.79
119.10
117.50
118.87
123.09
129.06
135.03
139.15
139.99
136.93
130.26
120.89
109.80
97.75
85.18
72.50
60.27
49.33
40.50
34.24
30.32
27.90
26.09
24.73
24.85
28.47
37.48
52.76
73.48
97.19
120.58
140.59
155.25
163.88
166.80
163.96
155.26
140.53
120.08
95.01
67.30
39.31
13.28
-9.16
-28.53
-46.00
-62.87
-79.90
-97.18
-114.38
-131.28
-148.03
-165.18
-185.44
-211.17
-243.52
-281.78
-323.61
-365.92
-406.03
-442.46
-474.87
-506.49
-540.46
-578.55
-620.21
-662.56
-701.47
-733.04
-754.59
-747.43
-698.39
-601.62
-462.54
-297.08
-125.82
33.42
169.39
277.44
357.67
410.34
437.60
443.34
433.94
416.20
395.89
376.77
360.27
346.06
331.02
312.46
289.07
261.58
232.03
202.76
175.13
148.96
122.63
92.12
53.46
4.62
-52.48
-111.32
-161.75
-193.07
-197.59
-173.48
-126.26
-66.62
-7.13
41.38
72.09
82.97
75.96
55.57
27.56
-2.41
-29.34
-49.61
-61.46
-65.16
-62.65
-56.78
-50.67
-46.66
-45.86
-47.92
-51.28
-53.79
-53.51
-49.39
-41.67
-31.86
-22.14
-14.63
-10.59
-10.08
-12.09
-15.20
-18.33
-21.35
-24.94
-29.90
-36.22
-42.38
-45.47
-42.07
-29.75
-8.29
19.94
50.57
78.93
101.85
118.60
130.78
140.88
150.60
159.82
166.85
169.71
167.74
162.52
157.21
155.07
157.61
163.76
170.39
173.91
171.68
162.51
145.91
121.13
87.06
43.43
-7.20
-58.64
-102.19
-129.99
-138.67
-131.17
-115.49
-100.62
-92.28
-90.46
-90.31
-85.55
-72.16
-50.36
-23.91
2.29
24.77
42.52
56.37
67.49
76.01
80.89
80.69
74.84
64.49
52.30
41.45
34.35
31.66
32.14
33.39
32.90
29.01
21.51
11.40
0.38
-9.94
-18.62
-25.59
-31.50
-37.33
-43.90
-51.54
-59.92
-67.98
-74.17
-76.76
-74.35
-66.33
-53.11
-36.08
-17.22
1.37
17.92
31.22
40.59
45.74
46.70
43.88
38.10
30.64
22.93
16.23
11.32
8.24
6.48
5.17
3.51
1.08
-2.11
-5.64
-8.92
-11.51
-13.37
-14.93
-17.01
-20.47
-25.92
-33.56
-42.99
-53.18
-62.66
-69.63
-72.40
-69.81
-61.61
-48.62
-32.61
-15.74
0.07
13.55
24.23
32.21
37.70
40.83
41.61
40.22
37.19
33.41
29.91
27.43
26.15
25.60
24.87
23.07
19.71
14.89
9.23
3.51
-1.69
-6.25
-10.61
-15.50
-21.67
-29.53
-38.94
-48.99
-58.09
-64.20
-65.37
-60.38
-49.18
-33.01
-14.09
5.14
22.69
37.40
48.85
57.06
62.04
63.72
62.13
57.71
51.40
44.50
38.25
33.43
30.11
27.70
25.28
22.03
17.62
12.32
6.74
1.58
-2.85
-6.71
-10.70
-15.78
-22.76
-32.07
-43.35
-55.43
-66.42
-73.99
-76.04
-71.34
-59.95
-43.40
-24.09
-4.64
12.95
27.60
39.02
47.31
52.48
54.49
53.34
49.57
44.19
38.54
33.78
30.47
28.35
26.71
24.73
21.97
18.49
14.73
11.20
8.13
5.38
2.46
-1.28
-6.50
-13.68
-22.92
-33.79
-45.16
-55.21
-61.74
-62.77
-57.14
-45.06
-28.17
-8.99
9.82
26.17
38.98
48.01
53.48
55.77
55.18
52.09
47.13
41.34
35.97
32.01
29.78
28.78
27.89
25.90
22.19
16.98
11.19
5.96
1.91
-1.11
-4.02
-8.06
-14.26
-23.04
-33.99
-45.91
-56.98
-65.00
-67.91
-64.29
-53.98
-38.25
-19.43
-0.22
17.11
31.23
41.79
49.00
53.08
54.16
52.35
48.02
42.09
35.85
30.62
27.19
25.56
24.98
24.34
22.77
19.93
16.07
11.84
7.83
4.24
0.85
-2.81
-7.27
-12.78
-19.33
-26.44
-33.23
-38.43
-40.59
-38.39
-31.10
-19.02
-3.45
13.54
29.76
43.51
53.82
60.56
63.95
64.34
62.02
57.39
51.13
44.26
37.94
33.11
30.11
28.54
27.44
25.78
22.90
18.70
13.64
8.35
3.32
-1.41
-6.30
-12.14
-19.73
-29.51
-41.23
-53.71
-65.04
-72.81
-74.84
-69.86
-58.06
-41.06
-21.56
-2.47
13.96
26.50
34.98
39.82
41.61
40.72
37.51
32.44
26.30
20.21
15.14
11.65
9.62
8.33
6.91
4.70
1.60
-2.03
-5.62
-8.83
-11.80
-15.18
-19.82
-26.54
-35.63
-46.73
-58.72
-69.75
-77.62
-80.22
-76.18
-65.38
-49.06
-29.58
-9.66
8.39
23.22
34.43
42.24
46.98
48.80
47.73
44.01
38.34
31.87
25.91
21.45
18.77
17.39
16.39
14.87
12.38
9.11
5.61
2.42
-0.34
-3.05
-6.46
-11.32
-18.17
-27.02
-37.39
-48.23
-57.89
-64.46
-66.00
-61.26
-50.10
-33.73
-14.41
5.24
22.97
37.44
48.20
55.37
59.20
59.95
57.97
53.87
48.64
43.55
39.70
37.66
37.20
37.49
37.38
35.87
32.52
27.44
21.23
14.69
8.43
2.69
-2.76
-8.55
-15.45
-24.14
-34.84
-47.12
-59.64
-70.36
-76.84
-77.01
-69.93
-56.15
-37.68
-17.38
1.99
18.46
31.16
40.18
45.95
48.90
49.25
47.20
43.20
38.10
33.02
28.95
26.46
25.42
25.11
24.56
22.95
19.91
15.71
11.04
6.64
2.95
-0.12
-3.08
-6.74
-11.76
-18.56
-27.11
-36.89
-46.85
-55.43
-60.83
-61.37
-56.17
-45.47
-30.70
-14.11
2.00
15.86
26.57
33.98
38.31
39.75
38.45
34.58
28.64
21.59
14.71
9.18
5.72
4.29
4.17
4.35
3.94
2.54
0.38
-1.95
-3.80
-4.92
-5.58
-6.52
-8.61
-12.61
-18.93
-27.48
-37.68
-48.31
-57.56
-63.29
-63.55
-57.27
-44.76
-27.82
-9.15
8.45
22.96
33.58
40.44
44.13
45.18
43.86
40.33
35.08
29.00
23.27
18.92
16.44
15.51
15.25
14.61
12.90
10.06
6.59
3.27
0.70
-1.04
-2.38
-4.19
-7.36
-12.54
-19.86
-28.86
-38.39
-46.80
-52.23
-53.05
-48.34
-38.25
-24.04
-7.79
8.19
22.01
32.49
39.26
42.52
42.66
40.06
35.07
28.16
20.11
11.96
4.81
-0.60
-4.15
-6.39
-8.19
-10.34
-13.10
-16.12
-18.63
-19.92
-19.73
-18.42
-16.78
-15.77
-16.17
-18.45
-22.64
-28.19
-33.94
-38.11
-38.68
-34.04
-23.64
-8.40
9.48
27.28
42.68
54.41
62.38
67.21
69.56
69.72
67.60
63.13
56.66
49.11
41.70
35.49
30.86
27.39
24.17
20.32
15.49
10.05
4.86
0.76
-1.91
-3.46
-4.80
-6.89
-10.49
-15.92
-23.02
-31.24
-39.59
-46.60
-50.50
-49.59
-42.91
-30.74
-14.70
2.66
18.80
32.02
41.76
48.42
52.67
54.86
54.83
52.31
47.38
40.86
34.14
28.59
25.02
23.22
22.29
21.07
18.80
15.38
11.33
7.38
3.99
1.09
-1.87
-5.58
-10.64
-17.29
-25.42
-34.57
-43.92
-52.25
-58.01
-59.62
-55.82
-46.25
-31.74
-14.24
3.66
19.50
31.62
39.39
43.09
43.39
40.99
36.43
30.29
23.31
16.49
10.76
6.61
3.72
1.13
-2.43
-7.79
-15.04
-23.49
-32.04
-39.71
-46.03
-51.26
-56.21
-61.94
-69.46
-79.38
-91.72
-105.67
-119.58
-131.13
-137.92
-138.04
-130.75
-116.75
-97.97
-77.08
-56.67
-38.72
-24.42
-14.25
-8.27
-6.36
-8.15
-12.91
-19.44
-26.35
-32.33
-36.71
-39.58
-41.73
-44.15
-47.61
-52.23
-57.41
-62.25
-65.82
-67.63
-67.76
-66.90
-66.08
-66.46
-68.88
-73.50
-79.59
-85.47
-88.89
-87.66
-80.49
-67.43
-49.97
-30.50
-11.52
5.12
18.58
28.86
36.34
41.41
44.17
44.69
43.27
40.55
37.55
35.25
34.25
34.48
35.27
35.65
34.83
32.51
29.00
24.96
21.10
17.78
14.74
11.19
6.04
-1.71
-12.54
-25.91
-40.18
-52.70
-60.50
-61.17
-53.72
-39.23
-20.61
-1.98
12.58
20.20
20.05
13.53
3.81
-5.21
-10.08
-8.81
-1.19
11.38
26.61
42.13
55.95
66.70
73.49
75.84
73.80
68.11
60.28
52.26
45.88
42.21
41.18
41.70
42.21
41.36
38.53
33.88
28.22
22.46
17.15
12.25
7.15
0.94
-7.11
-17.15
-28.47
-39.47
-48.05
-52.16
-50.42
-42.64
-29.82
-13.93
2.73
18.11
30.84
40.37
46.75
50.43
51.96
51.92
50.83
49.17
47.36
45.63
44.01
42.25
39.95
36.70
32.30
26.85
20.80
14.73
9.21
4.46
0.28
-3.99
-9.11
-15.59
-23.30
-31.21
-37.56
-40.28
-37.81
-29.62
-16.60
-0.86
15.03
28.80
39.18
46.05
50.13
52.44
53.90
54.99
55.91
56.64
57.07
56.98
56.09
54.10
50.88
46.70
42.20
38.33
35.89
35.12
35.56
36.10
35.43
32.40
26.50
17.99
7.99
-1.74
-9.03
-11.88
-8.96
-0.19
13.20
28.90
44.23
56.86
65.49
69.83
70.49
68.39
64.44
59.35
53.67
47.82
42.09
36.57
31.08
25.28
18.80
11.48
3.53
-4.53
-12.02
-18.31
-23.11
-26.63
-29.57
-32.91
-37.48
-43.47
-50.09
-55.64
-57.95
-55.13
-46.34
-32.14
-14.37
4.42
21.79
35.93
46.01
52.05
54.62
54.49
52.40
48.98
44.71
40.01
35.21
30.58
26.29
22.35
18.67
15.10
11.41
7.42
3.02
-1.89
-7.36
-13.48
-20.49
-28.62
-37.95
-48.12
-58.10
-66.21
-70.44
-69.18
-61.91
-49.51
-34.12
-18.36
-4.54
6.01
13.05
17.00
18.53
18.27
16.68
14.25
11.62
9.39
7.93
7.16
6.53
5.44
3.56
1.05
-1.54
-3.58
-4.77
-5.30
-5.76
-7.00
-9.78
-14.61
-21.50
-29.88
-38.47
-45.42
-48.76
-46.94
-39.51
-27.43
-12.89
1.43
13.22
21.20
25.23
26.00
24.50
21.57
17.76
13.41
8.90
4.59
0.83
-2.27
-4.81
-7.11
-9.42
-11.86
-14.26
-16.35
-17.85
-18.73
-19.33
-20.33
-22.60
-26.83
-33.16
-40.82
-48.13
-52.94
-53.26
-47.97
-37.34
-22.95
-7.17
7.64
19.81
28.72
34.65
38.31
40.35
41.00
40.26
38.12
34.88
31.09
27.43
24.33
21.71
19.19
16.37
13.11
9.65
6.43
3.68
1.25
-1.40
-4.94
-9.89
-16.35
-23.87
-31.42
-37.55
-40.65
-39.30
-32.83
-21.61
-7.02
8.91
24.09
36.87
46.36
52.36
55.06
54.94
52.55
48.65
44.08
39.69
36.14
33.61
31.86
30.29
28.30
25.49
21.89
17.81
13.73
9.99
6.59
3.21
-0.73
-5.80
-12.31
-20.13
-28.59
-36.48
-42.25
-44.39
-41.83
-34.50
-23.42
-10.55
1.81
11.78
18.37
21.63
22.24
21.00
18.41
14.66
9.87
4.35
-1.23
-6.11
-9.69
-11.85
-12.96
-13.68
-14.63
-16.16
-18.17
-20.34
-22.29
-23.85
-25.20
-26.84
-29.45
-33.48
-38.79
-44.49
-48.98
-50.40
-47.29
-39.21
-26.99
-12.51
1.92
14.26
23.31
28.84
31.39
31.85
31.07
29.72
28.35
27.46
27.41
28.16
29.09
29.02
26.56
20.74
11.43
-0.49
-13.57
-26.31
-37.74
-47.65
-56.40
-64.58
-72.64
-80.70
-88.53
-95.62
-101.25
-104.62
-105.01
-101.92
-95.24
-85.31
-72.89
-58.92
-44.50
-30.72
-18.58
-8.99
-2.54
0.69
1.29
0.44
-0.38
0.09
2.51
6.79
12.19
17.87
23.14
27.62
31.14
33.44
34.04
32.43
28.20
21.21
11.63
-0.07
-13.18
-26.50
-38.30
-46.40
-48.77
-44.30
-33.37
-17.87
-0.57
15.85
29.64
40.13
47.47
52.01
53.84
52.83
48.95
42.72
35.23
27.98
22.25
18.71
17.20
16.94
17.02
16.77
15.93
14.59
12.86
10.62
7.48
2.84
-3.84
-12.76
-23.57
-35.28
-46.31
-54.72
-58.64
-56.80
-48.96
-36.05
-19.85
-2.51
14.12
28.86
41.14
50.81
57.73
61.68
62.37
59.77
54.29
46.77
38.40
30.31
23.39
18.16
14.83
13.41
13.83
15.94
19.42
23.63
27.65
30.40
30.89
28.41
22.79
14.55
4.90
-4.38
-11.19
-13.65
-10.69
-2.41
9.79
23.61
36.58
46.77
53.25
56.13
56.09
54.04
50.70
46.60
42.19
37.88
34.02
30.80
28.14
25.77
23.37
20.81
18.28
16.11
14.59
13.69
12.98
11.70
9.02
4.29
-2.76
-11.91
-22.40
-32.96
-41.96
-47.69
-48.72
-44.43
-35.21
-22.49
-8.37
4.92
15.54
22.39
25.19
24.42
20.98
15.99
10.57
5.67
1.93
-0.38
-1.38
-1.49
-1.26
-1.18
-1.67
-2.89
-4.87
-7.57
-10.95
-15.17
-20.65
-27.84
-37.02
-47.90
-59.32
-69.35
-75.77
-76.72
-71.45
-60.65
-46.28
-30.87
-16.85
-5.88
1.37
5.03
5.81
4.52
1.93
-1.36
-4.86
-8.17
-10.97
-13.03
-14.34
-15.02
-15.34
-15.52
-15.74
-16.06
-16.52
-17.23
-18.51
-20.89
-24.95
-31.13
-39.41
-48.97
-58.31
-65.42
-68.34
-65.82
-57.78
-45.39
-30.76
-16.23
-3.76
5.59
11.67
14.93
16.09
15.73
14.27
12.05
9.37
6.60
4.06
1.91
0.07
-1.65
-3.45
-5.38
-7.30
-9.02
-10.46
-11.82
-13.59
-16.42
-20.89
-27.22
-35.04
-43.31
-50.34
-54.25
-53.44
-47.22
-36.08
-21.60
-5.95
8.79
21.15
30.49
36.79
40.39
41.63
40.82
38.28
34.46
29.89
25.12
20.52
16.17
11.96
7.65
3.10
-1.68
-6.52
-11.20
-15.65
-19.97
-24.57
-29.92
-36.47
-44.34
-53.04
-61.37
-67.53
-69.58
-66.00
-56.36
-41.54
-23.56
-4.94
12.07
25.96
36.16
42.77
46.22
46.88
45.14
41.47
36.60
31.44
26.83
23.21
20.50
18.25
15.85
12.95
9.62
6.20
3.07
0.33
-2.37
-5.65
-10.19
-16.47
-24.50
-33.78
-43.17
-51.00
-55.36
-54.52
-47.58
-34.92
-18.27
-0.18
16.77
30.74
41.01
47.70
51.40
52.53
51.36
48.16
43.57
38.59
34.36
31.69
30.61
30.47
30.18
28.82
26.03
22.11
17.68
13.38
9.42
5.53
1.07
-4.74
-12.44
-22.06
-32.98
-43.75
-52.42
-56.85
-55.47
-47.79
-34.71
-18.25
-0.87
15.32
29.07
39.97
48.12
53.63
56.45
56.44
53.68
48.77
42.77
36.96
32.25
29.01
26.90
25.12
22.86
19.61
15.41
10.70
6.11
2.09
-1.25
-4.25
-7.55
-11.93
-17.96
-25.86
-35.26
-45.17
-53.95
-59.61
-60.31
-54.91
-43.47
-27.28
-8.63
9.93
26.29
39.22
48.47
54.44
57.71
58.73
57.69
54.76
50.27
44.92
39.57
34.99
31.52
28.92
26.55
23.64
19.76
14.93
9.69
4.68
0.38
-3.12
-6.15
-9.23
-12.88
-17.46
-23.15
-29.94
-37.67
-45.83
-53.48
-59.17
-61.18
-58.06
-49.19
-35.26
-18.12
-0.28
15.85
28.73
37.93
43.89
47.46
49.32
49.82
48.99
46.90
43.82
40.30
37.01
34.44
32.80
31.91
31.33
30.58
29.25
27.19
24.49
21.39
18.16
14.91
11.63
8.15
4.25
-0.16
-5.15
-10.74
-17.02
-24.09
-31.88
-39.83
-46.69
-50.71
-50.17
-44.08
-32.70
-17.61
-1.22
13.93
26.02
34.31
39.11
41.29
41.81
41.32
40.05
38.03
35.22
31.79
28.11
24.63
21.76
19.61
18.10
16.89
15.64
14.04
11.91
9.20
5.93
2.22
-1.79
-5.92
-10.03
-14.08
-18.19
-22.61
-27.66
-33.56
-40.30
-47.39
-53.85
-58.26
-59.16
-55.55
-47.30
-35.39
-21.70
-8.49
2.24
9.29
12.49
12.62
10.96
8.94
7.66
7.73
9.22
11.77
14.72
17.39
19.22
19.87
19.22
17.31
14.28
10.34
5.73
0.78
-4.17
-8.78
-12.80
-16.11
-18.72
-20.81
-22.68
-24.71
-27.31
-30.77
-35.29
-40.72
-46.41
-51.23
-53.70
-52.28
-46.01
-34.86
-19.95
-3.29
12.76
26.24
36.00
41.96
44.76
45.43
44.84
43.51
41.63
39.27
36.55
33.80
31.42
29.73
28.82
28.38
27.90
26.82
24.73
21.58
17.71
13.78
10.56
8.72
8.65
10.37
13.50
17.28
20.61
22.21
20.89
15.99
7.72
-2.57
-12.65
-20.05
-22.89
-20.52
-13.71
-4.22
5.90
15.01
22.05
26.36
27.34
24.22
16.35
3.57
-13.20
-31.89
-49.58
-63.30
-70.74
-70.94
-64.40
-52.90
-38.96
-25.33
-14.50
-8.31
-7.80
-13.07
-23.37
-37.32
-53.03
-68.57
-82.19
-92.65
-99.38
-102.41
-102.02
-98.42
-91.48
-80.81
-66.08
-47.63
-26.73
-5.51
13.68
29.00
39.74
46.37
50.07
52.13
53.57
54.95
56.59
58.78
61.71
65.29
68.88
71.42
71.80
69.43
64.68
58.82
53.63
50.63
50.40
52.35
54.79
55.41
51.93
42.62
26.75
4.89
-21.02
-47.83
-71.74
-88.99
-96.88
-94.39
-82.48
-63.72
-41.47
-19.06
1.03
17.43
29.62
37.66
41.85
42.54
40.27
35.81
30.13
24.17
18.55
13.44
8.65
3.90
-0.76
-4.79
-7.39
-7.87
-6.27
-3.66
-2.12
-4.20
-12.13
-27.01
-48.28
-73.65
-99.48
-121.43
-135.43
-138.54
-129.72
-110.29
-83.79
-55.14
-29.42
-10.41
0.27
3.35
1.16
-3.61
-8.79
-13.30
-16.90
-19.64
-21.38
-21.79
-20.57
-17.74
-13.73
-9.10
-4.20
1.03
6.99
13.93
21.59
29.01
34.73
37.37
36.22
31.51
24.41
16.59
9.69
5.02
3.34
4.92
9.44
16.07
23.43
30.02
34.56
36.56
36.48
35.40
34.26
33.11
30.99
26.23
17.43
4.21
-12.45
-30.72
-48.62
-64.76
-78.38
-88.96
-95.63
-97.02
-91.60
-78.59
-58.83
-35.04
-11.43
7.62
18.76
20.57
13.72
0.43
-16.28
-33.33
-47.99
-58.04
-61.91
-58.99
-49.81
-36.06
-20.25
-4.81
8.67
19.95
29.90
39.85
50.58
61.84
72.40
80.60
85.08
85.16
80.88
72.69
61.18
46.96
30.83
13.93
-2.24
-16.16
-26.66
-33.40
-36.90
-38.35
-39.20
-40.67
-43.37
-47.08
-50.77
-52.80
-51.45
-45.36
-34.17
-18.64
-0.46
18.20
35.41
49.90
61.20
69.44
75.03
78.52
80.54
81.96
83.86
87.19
92.39
98.79
104.63
107.42
104.82
95.56
80.07
60.32
39.12
19.11
1.83
-12.54
-24.98
-36.93
-49.52
-63.01
-76.64
-88.67
-96.86
-98.97
-93.47
-80.02
-59.75
-35.05
-8.96
15.44
35.83
50.76
59.78
63.15
61.71
56.69
49.69
42.55
36.94
33.97
33.72
35.08
35.97
33.92
26.90
14.09
-3.71
-24.33
-44.76
-62.21
-74.98
-82.88
-87.13
-89.63
-92.03
-94.97
-97.82
-99.03
-96.91
-90.53
-80.06
-66.84
-52.71
-39.36
-27.79
-18.20
-10.14
-2.96
3.88
10.74
17.79
25.19
33.04
41.37
49.84
57.88
64.64
69.37
71.63
71.47
69.44
66.33
62.98
59.95
57.28
54.47
50.66
45.12
37.84
29.98
23.76
21.71
25.68
35.85
50.43
66.36
80.37
90.05
94.25
92.63
85.08
71.29
51.12
25.41
-3.31
-30.99
-53.12
-66.28
-69.48
-64.40
-54.51
-43.69
-34.81
-29.19
-26.77
-26.80
-28.49
-31.35
-35.17
-39.78
-44.96
-50.38
-55.59
-60.04
-62.90
-63.03
-59.25
-50.76
-37.69
-21.44
-4.47
10.28
20.29
24.18
21.98
14.98
5.18
-5.19
-14.14
-20.15
-22.34
-20.62
-15.81
-9.53
-3.91
-0.88
-1.65
-6.30
-13.84
-22.64
-31.12
-38.34
-44.14
-48.89
-52.99
-56.43
-58.74
-59.13
-56.96
-52.09
-44.82
-35.76
-25.45
-14.17
-1.92
11.32
25.34
39.61
53.30
65.59
75.85
83.68
88.89
91.32
90.81
87.50
81.92
75.18
68.79
64.20
62.20
62.56
63.98
64.57
62.36
55.93
44.75
29.18
10.30
-10.37
-31.12
-50.27
-66.31
-77.93
-84.18
-84.46
-78.64
-67.17
-51.09
-31.99
-11.65
8.16
26.12
41.42
53.74
63.10
69.47
72.69
72.45
68.51
60.97
50.33
37.37
22.90
7.42
-8.97
-26.40
-44.76
-63.27
-80.28
-93.64
-101.31
-102.32
-97.14
-87.72
-76.86
-67.35
-61.21
-59.24
-60.97
-65.05
-69.73
-73.35
-74.66
-72.96
-68.03
-60.00
-49.17
-35.88
-20.51
-3.56
14.27
32.12
48.95
63.69
75.38
83.23
86.87
86.42
82.55
76.50
69.78
63.94
60.14
58.98
60.32
63.39
66.90
69.40
69.48
66.16
58.99
48.19
34.72
20.01
5.76
-6.58
-16.15
-22.95
-27.71
-31.53
-35.44
-39.98
-45.12
-50.43
-55.15
-58.24
-58.31
-53.73
-43.01
-25.58
-2.51
23.21
47.21
65.02
73.50
71.88
61.90
47.05
31.35
18.10
9.20
5.02
4.86
7.40
11.16
14.69
16.52
15.31
10.06
0.47
-12.66
-27.42
-41.28
-51.82
-57.49
-58.11
-54.62
-48.48
-41.07
-33.31
-25.72
-18.78
-13.23
-9.99
-9.84
-12.92
-18.51
-25.20
-31.38
-35.77
-37.78
-37.56
-35.61
-32.43
-28.09
-22.29
-14.58
-4.86
6.27
17.43
26.73
32.36
33.23
29.41
22.11
13.51
6.25
2.83
5.11
13.70
27.76
44.94
62.00
75.65
83.68
85.71
83.40
79.83
78.20
80.52
86.73
94.63
100.79
101.77
95.32
80.94
59.92
34.62
7.87
-17.61
-39.47
-55.86
-65.58
-68.37
-65.15
-57.92
-49.32
-41.89
-37.40
-36.48
-38.73
-43.11
-48.27
-52.70
-54.70
-52.48
-44.47
-29.88
-9.24
15.49
41.05
63.61
79.42
85.43
79.76
62.18
34.39
0.19
-34.96
-65.03
-84.89
-91.76
-85.95
-70.56
-50.24
-29.69
-12.58
-1.08
3.73
1.38
-8.32
-25.21
-48.32
-75.69
-104.59
-132.13
-155.90
-174.37
-186.71
-192.29
-190.38
-180.18
-161.49
-135.34
-104.45
-72.76
-44.47
-22.75
-8.82
-1.75
1.00
2.46
5.24
10.78
19.38
30.32
42.39
54.36
65.35
75.06
83.83
92.55
102.16
113.10
124.77
135.23
141.48
140.18
128.82
106.75
75.74
39.60
3.24
-28.64
-52.72
-67.38
-72.56
-69.09
-58.14
-41.07
-19.47
4.61
28.85
50.98
69.34
83.18
92.58
98.10
100.33
99.63
96.21
90.40
82.84
74.54
66.65
60.03
54.96
50.98
47.06
41.98
34.69
24.69
12.10
-2.45
-18.00
-33.44
-47.76
-60.20
-70.44
-78.57
-84.96
-89.98
-93.72
-95.89
-96.01
-93.79
-89.43
-83.62
-77.36
-71.47
-66.24
-61.24
-55.56
-48.13
-38.20
-25.73
-11.41
3.35
16.70
26.77
32.03
31.71
25.95
15.91
3.62
-8.44
-17.84
-22.92
-23.42
-20.73
-17.83
-18.48
-26.02
-41.84
-64.13
-87.66
-104.77
-107.65
-91.15
-54.96
-4.13
52.35
104.37
143.73
166.08
171.22
162.01
142.73
117.80
91.23
66.55
46.89
34.64
30.91
34.99
44.26
54.80
62.56
64.59
59.90
49.65
36.50
23.50
13.12
6.50
3.37
2.53
2.43
1.74
-0.29
-3.81
-8.43
-13.35
-17.59
-20.21
-20.53
-18.32
-13.79
-7.54
-0.32
7.09
13.91
19.42
22.81
23.40
20.73
14.82
6.21
-4.25
-15.65
-27.35
-38.93
-50.06
-60.12
-68.06
-72.54
-72.46
-67.49
-58.51
-47.47
-36.92
-29.25
-26.08
-28.03
-34.60
-44.38
-55.21
-64.46
-69.45
-68.12
-59.62
-44.73
-25.67
-5.26
14.07
31.25
46.84
62.64
80.53
101.41
124.35
146.66
164.49
173.90
172.07
158.01
132.93
99.98
63.63
28.61
-1.03
-22.82
-36.18
-42.31
-43.49
-42.35
-41.16
-41.50
-44.20
-49.41
-56.55
-64.25
-70.45
-72.83
-69.54
-59.92
-44.81
-26.37
-7.25
10.30
25.05
36.86
46.23
53.65
59.15
62.19
61.91
57.55
48.80
35.95
19.80
1.46
-17.79
-36.54
-53.20
-66.16
-73.97
-75.83
-72.00
-63.99
-54.48
-46.73
-43.80
-47.69
-58.70
-75.11
-93.54
-109.76
-119.60
-120.12
-110.17
-90.57
-63.82
-33.38
-2.91
24.37
46.10
61.15
69.54
72.39
71.45
68.64
65.49
62.89
61.04
59.75
58.76
57.98
57.58
57.80
58.87
60.74
63.19
65.84
68.21
69.80
70.05
68.59
65.39
60.90
56.09
51.98
49.15
47.17
44.54
39.13
29.17
14.16
-4.62
-24.40
-41.98
-54.96
-62.51
-65.37
-65.30
-63.98
-62.39
-60.70
-58.71
-56.36
-54.16
-52.94
-53.39
-55.58
-58.70
-61.34
-62.06
-59.90
-54.76
-47.39
-39.23
-31.84
-26.47
-23.65
-22.95
-23.28
-23.11
-20.90
-15.31
-5.43
8.91
26.58
45.04
60.49
68.75
66.68
53.47
31.18
4.20
-22.08
-43.00
-55.76
-59.88
-56.72
-48.81
-39.01
-29.99
-23.73
-21.25
-22.51
-26.60
-32.10
-37.74
-42.87
-47.61
-52.58
-58.25
-64.38
-69.66
-72.08
-69.58
-60.91
-46.16
-26.78
-5.10
16.45
35.81
51.64
63.22
70.38
73.20
72.10
67.90
61.70
54.85
48.58
43.65
40.21
37.88
36.03
34.20
32.35
30.89
30.43
31.39
33.64
36.41
38.18
37.02
30.90
18.45
-0.42
-23.96
-48.75
-70.49
-85.10
-89.91
-84.06
-68.44
-45.13
-16.93
12.98
41.13
63.92
78.25
82.21
75.84
61.31
42.49
23.93
9.89
3.34
5.43
15.35
30.46
46.78
59.73
65.20
60.69
46.20
24.63
1.08
-18.64
-29.82
-30.37
-21.15
-5.21
13.83
33.33
52.33
71.22
90.63
110.30
128.56
142.75
150.23
149.46
140.71
126.11
108.99
92.90
80.40
72.36
67.66
63.70
57.43
46.46
29.99
9.17
-13.08
-32.72
-45.60
-48.63
-40.91
-24.57
-4.61
12.06
18.91
12.30
-6.57
-31.49
-53.21
-62.77
-54.88
-29.86
6.71
46.26
80.27
102.39
109.37
100.48
76.83
40.89
-3.13
-48.93
-88.50
-113.81
-119.24
-103.76
-71.64
-31.03
8.83
40.87
62.05
73.47
78.43
80.00
79.25
74.96
64.87
47.63
24.25
-1.55
-24.38
-38.99
-41.98
-32.85
-13.98
10.13
34.17
53.35
64.38
65.88
58.21
42.95
22.19
-2.05
-28.03
-54.29
-79.46
-102.24
-121.57
-136.74
-147.44
-153.60
-155.16
-151.95
-143.96
-131.78
-116.78
-100.91
-86.09
-73.48
-63.14
-54.20
-45.40
-35.42
-23.12
-7.38
12.83
38.32
69.04
103.66
139.50
173.18
201.45
222.05
234.03
237.51
233.32
222.47
205.99
184.85
160.07
132.69
103.89
74.87
46.90
21.07
-2.04
-22.51
-41.28
-59.84
-79.76
-102.13
-127.05
-153.52
-179.83
-204.09
-224.86
-241.48
-254.14
-263.53
-270.41
-275.36
-278.65
-280.16
-279.38
-275.24
-266.04
-249.74
-224.59
-189.99
-147.19
-99.44
-51.11
-6.46
31.53
61.63
83.87
98.64
106.08
106.06
98.92
85.95
69.53
52.28
36.12
21.43
7.21
-8.22
-26.32
-47.71
-72.08
-98.49
-125.67
-152.11
-175.98
-195.18
-207.70
-212.27
-208.85
-198.76
-184.21
-167.31
-149.28
-130.18
-109.47
-86.98
-63.95
-43.03
-27.52
-19.86
-20.15
-25.78
-32.11
-34.01
-27.49
-10.61
16.30
50.75
88.46
123.85
150.83
163.96
159.82
138.26
102.65
59.27
15.74
-20.78
-45.03
-54.55
-49.76
-33.53
-10.36
14.76
37.50
55.31
67.81
76.52
83.73
91.19
99.07
105.77
108.58
104.92
93.73
76.10
55.09
34.70
18.56
8.95
6.35
9.70
17.07
26.15
34.62
40.31
41.40
36.93
27.24
14.29
1.28
-8.23
-11.53
-7.78
1.88
14.76
27.78
38.49
45.75
49.65
50.99
50.65
49.15
46.58
42.79
37.71
31.43
24.30
16.84
9.55
2.87
-2.88
-7.51
-11.01
-13.53
-15.48
-17.54
-20.61
-25.58
-33.00
-42.71
-53.55
-63.44
-69.85
-70.47
-63.98
-50.56
-31.88
-10.61
10.40
28.86
43.53
54.15
61.12
65.03
66.40
65.61
63.04
59.18
54.57
49.76
44.99
40.28
35.39
30.12
24.44
18.59
12.85
7.43
2.24
-3.17
-9.50
-17.45
-27.28
-38.46
-49.55
-58.28
-62.21
-59.48
-49.57
-33.48
-13.55
7.40
26.85
43.17
55.72
64.61
70.23
72.98
73.22
71.26
67.50
62.40
56.43
50.01
43.56
37.40
31.76
26.77
22.40
18.43
14.45
9.84
3.92
-3.88
-13.62
-24.52
-34.86
-42.14
-43.79
-38.03
-24.59
-4.95
17.96
40.58
59.59
72.74
79.16
79.28
74.51
66.63
57.44
48.40
40.48
34.16
29.49
26.06
23.21
20.15
16.29
11.41
5.80
0.13
-4.77
-8.34
-10.53
-11.88
-13.44
-16.44
-21.79
-29.68
-39.24
-48.50
-54.91
-56.10
-50.70
-38.92
-22.57
-4.43
12.64
26.51
36.24
41.95
44.36
44.38
42.69
39.74
35.84
31.22
26.12
20.73
15.12
9.29
3.21
-3.03
-9.17
-14.74
-19.26
-22.42
-24.37
-25.87
-28.04
-32.08
-38.52
-46.80
-55.09
-60.82
-61.49
-55.70
-43.69
-27.19
-8.83
8.81
23.84
35.36
43.23
47.78
49.39
48.49
45.62
41.51
36.93
32.49
28.51
24.86
21.24
17.33
13.06
8.60
4.18
-0.05
-4.11
-8.28
-12.88
-18.25
-24.62
-31.87
-39.42
-46.04
-49.98
-49.39
-43.04
-30.92
-14.47
3.82
21.19
35.46
45.54
51.49
54.05
54.19
52.80
50.61
48.27
46.34
45.13
44.60
44.24
43.23
40.83
36.66
30.92
24.30
17.71
11.83
6.83
2.30
-2.66
-8.98
-17.18
-26.94
-36.99
-45.27
-49.56
-48.18
-40.59
-27.68
-11.56
5.11
19.81
30.82
37.54
40.29
40.00
37.65
34.10
29.84
25.14
20.22
15.29
10.58
6.26
2.36
-1.18
-4.44
-7.40
-9.98
-12.13
-14.02
-16.15
-19.23
-23.93
-30.49
-38.46
-46.54
-52.82
-55.25
-52.32
-43.56
-29.82
-13.12
4.00
19.17
30.83
38.47
42.32
43.06
41.44
38.12
33.73
28.92
24.33
20.42
17.27
14.62
11.95
8.75
4.78
0.03
-5.24
-10.66
-15.91
-20.79
-25.31
-29.70
-34.44
-40.03
-46.62
-53.71
-59.92
-63.39
-62.32
-55.74
-44.02
-28.81
-12.51
2.50
14.41
22.27
25.87
25.38
21.29
14.36
5.69
-3.32
-11.27
-17.10
-20.45
-21.59
-21.18
-19.99
-18.51
-17.00
-15.59
-14.46
-13.91
-14.40
-16.44
-20.43
-26.43
-33.99
-42.00
-48.83
-52.59
-51.75
-45.67
-34.93
-21.10
-6.32
7.41
18.71
27.02
32.42
35.35
36.31
35.80
34.35
32.45
30.52
28.78
27.17
25.44
23.35
20.78
17.89
15.04
12.55
10.60
9.08
7.64
5.77
2.93
-1.31
-7.15
-14.28
-21.79
-28.05
-31.09
-29.19
-21.49
-8.43
8.19
25.78
41.76
54.18
62.15
65.73
65.62
62.68
57.79
51.78
45.48
39.59
34.61
30.65
27.39
24.27
20.79
16.71
12.19
7.60
3.30
-0.63
-4.44
-8.65
-13.85
-20.31
-27.89
-35.72
-42.36
-45.99
-45.04
-38.69
-27.38
-12.75
2.88
17.17
28.50
36.13
40.14
41.05
39.50
36.08
31.34
25.94
20.56
15.77
11.83
8.64
5.78
2.87
-0.26
-3.54
-6.68
-9.48
-11.95
-14.35
-17.20
-20.99
-26.11
-32.58
-39.89
-46.94
-52.09
-53.56
-49.99
-41.06
-27.76
-12.21
3.05
15.84
25.01
30.39
32.52
32.12
29.78
25.97
21.18
16.07
11.38
7.64
4.98
3.06
1.33
-0.79
-3.53
-6.80
-10.26
-13.61
-16.66
-19.50
-22.47
-26.04
-30.63
-36.31
-42.55
-48.14
-51.42
-50.72
-45.02
-34.41
-20.17
-4.39
10.66
23.15
32.07
37.15
38.73
37.45
33.98
29.09
23.55
18.07
13.22
9.20
5.95
3.20
0.59
-2.11
-4.88
-7.49
-9.53
-10.63
-10.73
-10.26
-10.15
-11.51
-15.10
-20.82
-27.50
-33.10
-35.38
-32.76
-24.87
-12.73
1.64
15.88
28.05
37.00
42.50
44.89
44.81
42.85
39.57
35.47
31.13
27.07
23.62
20.78
18.20
15.44
12.15
8.36
4.36
0.53
-2.97
-6.30
-9.92
-14.39
-20.18
-27.43
-35.91
-44.78
-52.62
-57.65
-58.20
-53.33
-43.28
-29.51
-14.32
-0.10
11.31
19.02
22.99
23.78
22.13
18.79
14.46
9.75
5.27
1.47
-1.38
-3.31
-4.58
-5.62
-6.81
-8.44
-10.58
-13.13
-15.95
-18.97
-22.34
-26.36
-31.46
-37.86
-45.27
-52.67
-58.39
-60.52
-57.62
-49.30
-36.48
-21.15
-5.70
7.82
18.22
25.22
29.22
30.78
30.40
28.41
25.11
20.95
16.55
12.55
9.45
7.36
6.02
4.91
3.49
1.41
-1.39
-4.74
-8.47
-12.63
-17.58
-23.84
-31.71
-40.94
-50.43
-58.34
-62.59
-61.57
-54.70
-42.77
-27.70
-11.83
2.68
14.47
23.05
28.58
31.55
32.42
31.51
29.16
25.84
22.15
18.73
16.07
14.23
12.96
11.84
10.53
8.93
7.17
5.38
3.48
1.07
-2.52
-7.96
-15.52
-24.80
-34.66
-43.36
-48.99
-49.96
-45.51
-35.97
-22.71
-7.75
6.74
19.09
28.39
34.53
37.90
39.03
38.31
36.07
32.61
28.42
24.15
20.40
17.48
15.26
13.29
11.09
8.47
5.59
2.81
0.35
-1.92
-4.59
-8.41
-13.93
-21.15
-29.37
-37.26
-43.12
-45.33
-42.76
-35.10
-23.03
-8.05
7.90
22.87
35.37
44.55
50.20
52.58
52.21
49.75
45.86
41.23
36.51
32.25
28.76
26.13
24.15
22.48
20.73
18.70
16.37
13.93
11.50
9.10
6.39
2.80
-2.27
-9.16
-17.60
-26.55
-34.25
-38.72
-38.33
-32.42
-21.60
-7.65
7.14
20.59
31.27
38.59
42.61
43.70
42.26
38.71
33.66
27.91
22.39
17.85
14.62
12.44
10.68
8.58
5.64
1.80
-2.67
-7.31
-11.80
-16.10
-20.52
-25.60
-31.90
-39.69
-48.60
-57.50
-64.58
-67.84
-65.67
-57.48
-43.95
-27.02
-9.25
6.83
19.40
27.61
31.53
31.76
29.22
24.87
19.68
14.60
10.39
7.49
5.91
5.25
4.86
4.14
2.75
0.70
-1.73
-4.25
-6.68
-9.12
-11.90
-15.56
-20.58
-27.18
-35.03
-43.04
-49.46
-52.31
-50.09
-42.31
-29.87
-14.70
0.84
14.75
25.82
33.75
38.83
41.51
42.16
41.05
38.57
35.32
32.09
29.50
27.87
27.01
26.34
25.19
23.12
20.13
16.57
12.99
9.76
6.91
4.03
0.45
-4.44
-10.97
-18.89
-27.31
-34.74
-39.43
-39.84
-35.16
-25.67
-12.68
1.78
15.68
27.47
36.40
42.43
45.84
46.89
45.70
42.48
37.72
32.25
27.12
23.09
20.37
18.50
16.64
14.11
10.68
6.73
2.92
-0.22
-2.63
-4.74
-7.30
-10.97
-16.08
-22.56
-29.85
-36.98
-42.68
-45.45
-44.05
-37.80
-27.09
-13.33
1.38
14.95
25.92
33.77
38.69
41.13
41.50
39.97
36.79
32.41
27.59
23.11
19.49
16.68
14.16
11.29
7.65
3.33
-1.18
-5.20
-8.29
-10.41
-11.93
-13.48
-15.71
-19.12
-23.93
-29.98
-36.65
-42.81
-46.90
-47.39
-43.15
-34.03
-21.00
-5.96
8.88
21.67
31.34
37.67
40.97
41.73
40.38
37.28
32.94
28.14
23.76
20.53
18.69
17.87
17.29
16.08
13.74
10.30
6.19
1.97
-2.00
-5.72
-9.45
-13.63
-18.67
-24.79
-31.89
-39.49
-46.50
-51.42
-52.64
-49.00
-40.34
-27.72
-13.23
0.74
12.20
20.10
24.41
25.70
24.76
22.16
18.37
13.83
9.13
4.96
1.83
-0.13
-1.27
-2.18
-3.42
-5.23
-7.43
-9.65
-11.60
-13.24
-14.91
-17.13
-20.45
-25.21
-31.35
-38.36
-45.13
-50.19
-51.99
-49.37
-42.01
-30.57
-16.62
-2.11
11.10
21.68
28.94
32.70
33.15
30.84
26.55
21.27
16.06
11.80
8.93
7.35
6.55
5.84
4.66
2.78
0.32
-2.39
-5.03
-7.49
-9.93
-12.77
-16.52
-21.67
-28.35
-36.14
-44.02
-50.36
-53.40
-51.74
-44.89
-33.59
-19.59
-5.14
7.79
17.93
24.92
29.01
30.67
30.36
28.42
25.25
21.38
17.42
13.84
10.86
8.34
5.96
3.38
0.45
-2.72
-5.92
-8.96
-11.81
-14.64
-17.78
-21.66
-26.68
-33.04
-40.46
-48.02
-54.21
-57.22
-55.47
-48.34
-36.48
-21.59
-5.94
8.36
19.95
28.31
33.46
35.71
35.32
32.57
27.91
22.11
16.12
10.80
6.61
3.41
0.65
-2.31
-5.91
-10.17
-14.78
-19.38
-23.78
-28.08
-32.73
-38.29
-45.23
-53.66
-63.26
-73.17
-82.00
-88.11
-90.02
-86.97
-79.23
-68.30
-56.39
-45.69
-37.66
-32.44
-29.10
-26.21
-22.65
-18.08
-12.96
-8.06
-3.98
-0.89
1.44
3.36
5.09
6.77
8.57
10.80
13.80
17.65
21.90
25.48
26.95
25.07
19.23
9.72
-2.21
-14.55
-24.96
-31.24
-31.74
-25.83
-13.96
2.49
21.51
40.89
58.59
72.99
83.05
88.46
89.69
87.89
84.55
80.96
77.80
75.04
72.12
68.53
64.18
59.51
55.20
51.77
49.17
46.88
44.10
40.18
34.86
28.17
20.34
11.67
2.62
-5.90
-12.44
-15.21
-12.65
-4.15
9.53
26.24
43.06
57.18
66.67
70.83
70.13
65.66
58.64
50.09
40.76
31.22
21.96
13.50
6.29
0.63
-3.45
-6.12
-7.70
-8.54
-8.96
-9.19
-9.56
-10.49
-12.54
-16.31
-22.07
-29.39
-37.04
-43.13
-45.69
-43.39
-36.04
-24.78
-11.69
0.86
10.88
17.23
19.76
19.09
16.31
12.48
8.55
5.03
2.14
-0.19
-2.14
-3.97
-5.88
-8.05
-10.56
-13.39
-16.44
-19.54
-22.51
-25.43
-28.64
-32.74
-38.28
-45.29
-52.92
-59.41
-62.55
-60.45
-52.41
-39.28
-23.29
-7.27
6.28
15.87
21.28
23.21
22.83
21.20
19.09
16.91
14.85
13.01
11.47
10.27
9.28
8.28
6.93
4.99
2.40
-0.70
-4.14
-7.94
-12.42
-18.07
-25.18
-33.48
-41.84
-48.49
-51.46
-49.38
-41.94
-30.12
-15.91
-1.69
10.46
19.29
24.55
26.80
26.94
25.75
23.64
20.67
16.83
12.30
7.49
3.00
-0.68
-3.41
-5.38
-7.06
-8.93
-11.28
-14.24
-17.92
-22.52
-28.34
-35.42
-43.19
-50.29
-54.72
-54.51
-48.51
-36.94
-21.42
-4.45
11.47
24.56
34.05
40.03
43.06
43.82
42.96
41.19
39.19
37.55
36.48
35.70
34.49
32.03
27.79
21.71
14.24
6.03
-2.29
-10.47
-18.55
-26.85
-35.56
-44.51
-52.84
-59.16
-61.83
-59.58
-52.05
-39.97
-25.03
-9.26
5.49
17.95
27.43
33.58
36.11
34.78
29.50
20.64
9.17
-3.30
-14.82
-23.49
-27.95
-27.82
-23.76
-17.44
-11.04
-6.74
-6.24
-10.51
-19.72
-33.33
-50.09
-67.99
-84.40
-96.26
-100.77
-96.14
-82.13
-60.38
-33.93
-6.39
18.98
39.99
55.75
66.43
72.74
75.53
75.49
73.28
69.55
65.11
60.82
57.49
55.64
55.47
57.02
60.21
64.93
70.84
77.17
82.49
84.85
82.28
73.44
58.40
38.96
18.44
0.78
-10.54
-13.52
-8.14
3.81
19.38
35.47
49.48
59.78
65.65
67.02
64.15
57.46
47.57
35.41
22.30
9.77
-0.67
-7.97
-11.90
-13.12
-13.10
-13.80
-17.11
-24.47
-36.44
-52.49
-70.96
-89.28
-104.45
-113.66
-115.14
-108.61
-95.45
-78.24
-59.96
-43.14
-29.34
-19.03
-11.90
-7.41
-4.95
-3.91
-3.57
-3.01
-1.32
1.82
6.04
10.19
12.91
13.29
11.43
8.39
5.81
5.11
6.85
10.54
14.78
17.81
18.09
14.85
8.52
0.90
-5.13
-6.26
0.19
15.30
37.86
64.55
90.75
111.79
124.14
126.17
118.18
102.16
81.04
58.11
36.52
18.82
6.80
1.09
1.22
5.68
12.33
18.95
23.71
25.58
24.37
20.58
15.03
8.53
1.70
-5.11
-11.81
-18.53
-25.52
-32.97
-40.77
-48.35
-54.68
-58.50
-58.82
-55.34
-48.61
-39.86
-30.64
-22.31
-15.68
-10.92
-7.65
-5.28
-3.24
-1.31
0.40
1.53
1.82
1.19
-0.10
-1.71
-3.42
-5.28
-7.50
-10.32
-13.75
-17.50
-21.11
-24.10
-26.12
-27.14
-27.42
-27.52
-28.06
-29.39
-31.20
-32.48
-31.67
-27.39
-19.12
-7.62
5.13
16.65
24.73
28.07
26.58
21.47
14.99
10.36
11.19
20.65
40.16
68.34
100.64
130.17
149.70
153.85
140.83
112.75
74.69
32.97
-6.36
-38.42
-59.87
-68.98
-65.86
-52.57
-33.00
-12.11
5.35
16.16
19.37
16.24
9.33
1.43
-5.42
-10.26
-13.11
-14.61
-15.56
-16.76
-18.89
-22.47
-27.82
-34.87
-43.07
-51.39
-58.52
-63.25
-64.86
-63.39
-59.63
-54.79
-49.98
-45.86
-42.55
-39.87
-37.63
-35.87
-34.77
-34.35
-34.23
-33.56
-31.39
-27.09
-20.92
-13.95
-7.63
-3.01
-0.13
2.09
5.33
10.93
19.27
29.39
39.46
47.35
51.42
50.78
45.42
36.15
24.64
13.45
5.76
4.69
12.15
27.78
48.59
69.56
85.16
91.18
86.04
71.08
49.83
26.68
5.73
-10.09
-19.19
-21.22
-16.88
-7.64
4.49
17.31
28.78
37.45
42.67
44.58
43.95
41.78
38.97
36.03
32.92
29.11
23.89
16.62
7.09
-4.40
-17.21
-30.57
-43.86
-56.59
-68.30
-78.40
-86.13
-90.84
-92.26
-90.73
-87.00
-81.99
-76.34
-70.28
-63.72
-56.55
-48.82
-40.76
-32.53
-24.11
-15.32
-6.07
3.31
12.00
18.85
22.97
24.14
23.02
20.97
19.48
19.49
21.10
23.53
25.46
25.52
22.68
16.44
7.12
-4.11
-15.07
-22.90
-24.65
-18.25
-3.41
17.97
42.08
64.30
80.43
87.78
85.54
74.63
57.17
35.90
13.82
-6.20
-21.67
-31.03
-33.98
-31.61
-26.02
-19.65
-14.42
-11.31
-10.35
-10.97
-12.66
-15.31
-19.22
-24.93
-32.81
-42.87
-54.64
-67.29
-79.65
-90.36
-98.11
-101.82
-101.01
-95.92
-87.49
-76.99
-65.59
-54.15
-43.18
-33.09
-24.39
-17.82
-14.00
-13.08
-14.46
-16.75
-18.29
-17.75
-14.60
-9.32
-3.10
2.68
6.95
9.23
9.75
9.26
8.76
9.13
10.79
13.48
16.38
18.55
19.51
19.68
20.34
23.05
28.94
38.06
49.45
61.66
73.52
84.61
95.28
106.11
117.26
128.12
137.22
142.68
142.67
135.99
122.39
102.75
78.94
53.60
29.68
9.85
-4.02
-11.31
-12.78
-10.26
-6.28
-3.29
-3.20
-6.96
-14.54
-25.14
-37.44
-49.80
-60.46
-67.73
-70.26
-67.44
-59.71
-48.67
-36.81
-26.96
-21.45
-21.58
-27.18
-36.79
-48.15
-58.85
-66.95
-71.42
-72.24
-70.30
-67.00
-63.80
-61.77
-61.37
-62.36
-63.99
-65.34
-65.61
-64.44
-62.05
-59.17
-56.80
-55.92
-57.08
-60.06
-63.81
-66.53
-66.12
-60.80
-49.70
-33.14
-12.53
10.15
32.96
54.41
73.50
89.48
101.64
109.38
112.57
111.97
109.28
106.75
106.31
108.83
113.75
119.41
123.66
124.62
120.99
112.08
97.77
78.38
54.81
28.56
1.69
-23.57
-45.14
-61.45
-71.44
-74.69
-71.39
-62.32
-48.94
-33.13
-16.97
-2.20
10.03
19.24
25.48
28.94
29.67
27.52
22.30
13.97
2.95
-9.91
-23.34
-35.94
-46.46
-54.07
-58.52
-60.09
-59.59
-58.08
-56.67
-56.43
-58.17
-62.46
-69.52
-79.10
-90.24
-101.18
-109.45
-112.43
-108.05
-95.57
-75.94
-51.56
-25.55
-0.84
20.61
38.01
51.57
61.93
69.69
75.18
78.58
80.06
79.94
78.74
76.95
74.77
72.09
68.54
63.97
58.73
53.82
50.57
50.10
52.71
57.60
63.10
67.24
68.49
66.22
60.77
53.12
44.45
35.69
27.49
20.33
14.70
11.11
9.94
11.19
14.28
18.21
21.80
24.19
25.11
24.77
23.58
21.79
19.32
15.88
11.29
5.70
-0.31
-6.01
-10.82
-14.67
-18.03
-21.84
-27.22
-35.17
-46.27
-60.40
-76.52
-92.63
-105.98
-113.79
-114.01
-106.10
-91.30
-72.39
-52.74
-35.36
-22.09
-13.49
-9.07
-7.92
-9.08
-11.71
-15.00
-18.12
-20.27
-20.95
-20.10
-18.20
-16.06
-14.48
-13.98
-14.66
-16.23
-18.34
-20.85
-24.01
-28.44
-34.87
-43.55
-53.92
-64.20
-71.76
-73.83
-68.48
-55.50
-36.66
-15.24
5.02
21.02
31.23
35.83
36.47
35.41
34.87
36.40
40.64
47.36
55.67
64.31
71.93
77.46
80.34
80.71
79.34
77.37
75.89
75.47
75.90
76.19
75.00
71.21
64.30
54.74
43.89
33.76
26.41
23.51
25.83
32.97
43.43
54.92
64.95
71.55
73.69
71.38
65.53
57.40
48.27
39.14
30.64
23.13
16.73
11.36
6.70
2.22
-2.70
-8.57
-15.57
-23.36
-31.18
-38.18
-43.76
-47.95
-51.39
-55.12
-60.05
-66.39
-73.43
-79.54
-82.73
-81.35
-74.83
-63.89
-50.39
-36.73
-24.99
-16.44
-11.22
-8.73
-7.95
-8.02
-8.45
-9.06
-9.96
-11.33
-13.42
-16.46
-20.56
-25.62
-31.16
-36.32
-40.03
-41.29
-39.60
-35.13
-28.72
-21.70
-15.60
-11.86
-11.55
-15.03
-21.71
-29.84
-36.87
-40.04
-37.37
-28.43
-14.54
1.70
17.50
30.82
40.95
48.28
53.70
57.91
61.09
62.95
63.21
61.91
59.42
56.26
52.72
48.76
43.92
37.82
30.36
21.92
13.29
5.28
-1.57
-7.29
-12.35
-17.49
-23.27
-29.81
-36.65
-42.69
-46.57
-46.92
-42.94
-34.68
-23.21
-10.29
2.12
12.47
19.84
24.05
25.38
24.28
21.22
16.71
11.40
6.04
1.38
-2.01
-3.96
-4.65
-4.51
-4.03
-3.57
-3.36
-3.48
-4.03
-5.07
-6.78
-9.37
-13.16
-18.40
-25.20
-33.21
-41.48
-48.40
-52.11
-51.06
-44.67
-33.75
-20.22
-6.50
5.30
14.03
19.50
22.24
22.88
21.90
19.52
16.02
11.90
7.90
4.72
2.71
1.68
0.99
-0.09
-2.01
-4.76
-7.90
-10.85
-13.21
-15.04
-16.85
-19.44
-23.49
-29.32
-36.55
-44.10
-50.34
-53.48
-52.06
-45.40
-33.91
-19.03
-2.78
12.73
25.86
35.69
42.00
44.96
44.98
42.57
38.36
33.15
27.82
23.12
19.39
16.53
14.10
11.62
8.81
5.74
2.73
0.07
-2.16
-4.17
-6.39
-9.37
-13.59
-19.36
-26.67
-34.97
-43.04
-49.11
-51.22
-47.87
-38.66
-24.54
-7.62
9.47
24.38
35.58
42.49
45.34
44.84
41.83
37.26
32.07
27.18
23.24
20.49
18.65
17.02
14.82
11.50
7.04
1.94
-3.02
-7.16
-10.21
-12.41
-14.42
-17.05
-20.95
-26.39
-33.09
-40.26
-46.67
-50.81
-51.31
-47.35
-39.04
-27.54
-14.75
-2.81
6.62
12.75
15.76
16.39
15.51
13.83
11.75
9.53
7.43
5.73
4.69
4.35
4.45
4.54
4.29
3.66
2.92
2.43
2.33
2.37
1.87
0.01
-3.88
-10.04
-18.23
-27.61
-36.87
-44.25
-47.98
-46.67
-39.86
-28.34
-14.02
0.61
13.23
22.28
27.27
28.54
26.81
22.90
17.54
11.50
5.61
0.68
-2.70
-4.37
-4.72
-4.41
-4.14
-4.28
-4.77
-5.29
-5.47
-5.25
-4.94
-5.11
-6.52
-9.74
-14.93
-21.61
-28.55
-33.86
-35.47
-31.70
-21.93
-7.05
10.74
28.47
43.26
53.08
57.18
55.94
50.51
42.34
32.72
22.71
12.98
3.95
-4.30
-11.86
-18.94
-25.80
-32.65
-39.67
-47.01
-54.71
-62.76
-71.14
-79.89
-89.18
-99.25
-110.17
-121.34
-131.36
-138.05
-138.98
-132.35
-117.75
-96.44
-71.03
-44.64
-20.02
1.03
17.78
30.26
38.97
44.59
47.89
49.73
50.85
51.86
53.05
54.44
55.96
57.60
59.45
61.62
64.11
66.66
68.75
69.71
68.85
65.58
59.40
49.98
37.38
22.24
6.08
-8.76
-19.58
-24.13
-21.37
-11.92
2.20
18.19
33.46
46.27
56.03
62.95
67.58
70.38
71.47
70.77
68.24
64.07
58.77
53.05
47.61
42.89
39.08
36.00
33.37
30.79
27.98
24.72
20.83
16.11
10.34
3.27
-5.18
-14.80
-24.93
-34.48
-42.13
-46.71
-47.51
-44.48
-38.22
-29.85
-20.80
-12.65
-7.08
-5.62
-9.47
-19.07
-33.92
-52.48
-72.43
-91.13
-106.26
-116.24
-120.56
-119.74
-115.04
-108.07
-100.31
-92.82
-86.06
-80.06
-74.70
-69.94
-65.92
-62.72
-60.07
-57.05
-52.11
-43.54
-30.18
-12.00
9.73
32.79
54.73
73.64
88.44
98.88
105.38
108.72
110.03
110.66
112.00
114.96
119.54
124.48
127.41
125.50
116.26
98.50
72.80
41.36
7.55
-25.13
-53.85
-77.13
-94.90
-107.87
-116.65
-121.01
-119.71
-111.14
-94.39
-70.15
-40.97
-10.66
16.93
39.11
54.94
64.94
70.49
73.03
73.57
72.67
70.50
66.97
61.77
54.37
44.21
30.93
14.69
-3.68
-22.87
-41.57
-58.92
-74.84
-90.00
-105.49
-122.31
-140.80
-160.23
-178.63
-192.94
-199.81
-196.49
-181.79
-156.69
-124.25
-88.71
-54.32
-24.20
0.26
19.31
34.12
46.00
55.84
63.97
70.31
74.58
76.53
76.03
73.17
68.32
62.40
56.85
53.61
54.59
61.02
72.72
87.71
102.22
111.64
111.90
101.00
79.99
52.84
25.24
2.89
-10.18
-12.54
-5.14
9.53
28.51
49.08
69.05
86.58
100.20
108.84
112.13
110.57
105.36
98.03
89.87
81.69
73.68
65.71
57.58
49.16
40.38
31.00
20.53
8.12
-7.24
-26.33
-49.36
-75.63
-103.37
-129.91
-152.15
-167.13
-172.88
-168.87
-156.10
-136.86
-113.93
-89.96
-66.81
-45.50
-26.30
-9.17
5.90
18.74
29.05
36.55
41.21
43.37
43.68
42.98
42.07
41.60
41.89
43.01
44.72
46.60
48.03
48.18
46.15
41.36
33.96
25.41
18.57
17.17
24.71
43.04
71.41
106.32
142.40
173.85
195.84
205.42
201.79
186.10
161.00
130.25
98.16
69.03
46.17
31.23
23.77
21.58
21.56
20.77
17.31
10.62
1.26
-9.73
-21.29
-32.73
-43.75
-54.35
-64.71
-75.03
-85.44
-95.82
-105.67
-114.05
-119.78
-121.67
-118.93
-111.35
-99.39
-84.15
-67.12
-50.07
-34.74
-22.62
-14.69
-11.25
-11.91
-15.66
-21.20
-27.08
-31.83
-34.11
-32.84
-27.47
-18.20
-6.02
7.43
20.25
30.71
37.53
39.90
37.47
30.35
19.31
5.99
-7.06
-16.77
-20.34
-16.19
-4.55
12.50
31.80
50.16
65.35
76.70
84.94
91.53
97.93
104.90
112.35
119.47
124.99
127.46
125.40
117.41
102.35
79.78
50.42
16.45
-18.53
-50.25
-74.82
-89.82
-94.99
-92.22
-84.85
-76.47
-69.83
-66.03
-64.51
-63.51
-60.92
-55.21
-45.76
-32.91
-17.55
-0.72
16.68
33.79
49.48
62.25
70.26
71.91
66.54
54.83
38.85
21.51
5.72
-6.46
-14.21
-18.18
-19.99
-21.68
-25.07
-31.18
-40.02
-50.61
-61.48
-71.19
-78.84
-84.25
-87.69
-89.31
-88.61
-84.41
-75.32
-60.54
-40.55
-17.15
7.08
29.69
49.18
65.21
78.21
88.68
96.73
101.93
103.77
102.14
97.72
91.80
85.87
81.09
78.04
76.78
77.13
79.00
82.35
86.96
92.06
96.05
96.65
91.45
78.65
57.77
29.94
-2.30
-35.53
-66.19
-91.20
-108.35
-116.41
-115.15
-105.29
-88.35
-66.45
-41.98
-17.32
5.38
24.28
37.92
45.29
46.17
41.39
32.86
23.29
15.26
10.36
8.54
8.16
6.53
1.06
-9.61
-25.13
-43.41
-61.46
-76.47
-86.79
-92.56
-95.48
-98.06
-102.58
-110.23
-120.59
-131.72
-140.80
-145.01
-142.33
-132.12
-115.24
-93.65
-69.87
-46.18
-24.28
-5.08
10.97
23.61
32.69
38.18
40.62
41.06
41.05
41.99
44.67
48.87
53.63
57.76
60.51
61.97
63.08
65.20
69.61
76.95
86.96
98.41
109.31
117.27
120.15
116.78
107.37
93.48
77.53
61.85
47.87
35.85
25.14
14.85
4.51
-5.53
-14.23
-20.23
-22.30
-19.72
-12.56
-1.77
10.83
22.65
30.82
32.84
27.30
14.41
-3.91
-24.56
-44.00
-59.31
-68.96
-73.11
-73.41
-72.27
-72.08
-74.39
-79.63
-86.96
-94.62
-100.43
-102.29
-98.92
-90.18
-77.40
-63.07
-50.24
-41.50
-38.04
-39.29
-43.10
-46.57
-47.19
-43.62
-35.90
-25.21
-13.11
-1.04
10.03
19.59
27.28
32.82
36.05
37.07
36.41
34.95
33.63
33.11
33.41
33.89
33.50
31.19
26.50
19.93
13.15
8.63
9.03
16.35
31.12
52.10
76.39
100.15
119.44
131.15
133.45
126.12
110.41
88.79
64.54
41.16
21.72
8.24
1.37
0.37
3.47
8.42
13.17
16.22
16.81
14.88
10.78
5.05
-1.80
-9.32
-17.24
-25.39
-33.65
-41.82
-49.55
-56.24
-61.21
-63.92
-64.15
-62.19
-58.58
-53.91
-48.44
-42.09
-34.60
-26.03
-17.04
-8.97
-3.55
-2.36
-6.21
-14.83
-26.87
-40.32
-53.06
-63.38
-70.26
-73.31
-72.65
-68.62
-61.77
-52.90
-43.15
-34.03
-27.12
-23.66
-24.21
-28.30
-34.40
-40.15
-42.93
-40.47
-31.56
-16.44
3.12
24.34
44.25
60.56
72.13
79.20
83.02
85.35
88.01
92.37
99.02
107.46
116.03
122.15
122.94
115.97
100.16
76.24
46.81
15.74
-12.71
-34.95
-48.91
-54.43
-53.16
-47.89
-41.68
-36.78
-33.99
-32.59
-30.84
-26.81
-19.29
-8.25
5.24
19.45
32.66
43.48
50.98
54.52
53.64
48.09
38.09
24.41
8.31
-8.75
-25.59
-41.46
-56.07
-69.35
-81.09
-90.91
-98.35
-103.13
-105.35
-105.50
-104.36
-102.79
-101.65
-101.66
-103.27
-106.50
-110.69
-114.43
-115.82
-112.83
-103.92
-88.54
-67.31
-41.91
-14.68
11.88
35.57
54.75
68.48
76.55
79.38
77.92
73.55
67.84
62.35
58.37
56.72
57.61
60.58
64.71
68.84
71.88
73.19
72.70
71.01
69.14
68.23
69.07
71.82
75.83
79.74
81.71
79.85
72.69
59.64
41.42
19.97
-1.85
-21.01
-35.18
-43.29
-45.61
-43.40
-38.28
-31.73
-24.85
-18.52
-13.61
-10.98
-11.29
-14.72
-20.64
-27.83
-34.81
-40.44
-44.23
-46.47
-47.98
-49.59
-51.73
-54.09
-55.68
-55.17
-51.32
-43.50
-31.99
-17.98
-3.29
10.11
20.59
27.26
29.97
29.23
25.91
20.92
15.10
9.11
3.47
-1.44
-5.35
-8.18
-10.11
-11.61
-13.43
-16.33
-20.77
-26.77
-33.80
-41.09
-47.94
-54.12
-59.87
-65.63
-71.39
-76.36
-78.97
-77.29
-69.86
-56.47
-38.37
-17.97
1.95
19.15
32.46
41.84
47.94
51.50
53.03
52.79
50.94
47.83
44.03
40.21
36.77
33.76
30.88
27.71
24.05
19.97
15.78
11.73
7.79
3.49
-1.94
-9.19
-18.40
-28.86
-39.01
-46.76
-50.14
-48.04
-40.57
-29.05
-15.56
-2.26
9.26
18.18
24.54
28.83
31.70
33.70
35.21
36.36
37.15
37.38
36.75
34.93
31.69
27.06
21.44
15.54
10.12
5.80
2.78
0.83
-0.75
-2.82
-6.18
-11.16
-17.43
-23.84
-28.70
-30.25
-27.26
-19.55
-8.15
4.97
17.51
27.52
33.78
35.97
34.41
29.83
23.15
15.38
7.64
1.03
-3.58
-5.81
-5.81
-4.32
-2.34
-0.76
-0.12
-0.42
-1.31
-2.31
-3.14
-3.91
-5.10
-7.39
-11.34
-16.98
-23.61
-29.68
-33.12
-31.96
-25.08
-12.72
3.41
20.66
36.20
47.88
54.67
56.58
54.41
49.20
42.07
34.07
26.21
19.35
14.15
10.74
8.73
7.32
5.60
2.98
-0.74
-5.30
-10.18
-14.88
-19.16
-23.09
-27.13
-31.89
-37.86
-45.06
-52.79
-59.56
-63.46
-62.71
-56.42
-44.95
-29.96
-13.84
0.96
12.70
20.55
24.53
25.14
23.01
18.86
13.48
7.77
2.69
-1.09
-3.42
-4.80
-6.07
-8.07
-11.17
-15.16
-19.41
-23.18
-26.07
-28.24
-30.36
-33.47
-38.50
-45.87
-55.07
-64.48
-71.56
-73.43
-67.70
-53.36
-31.21
-3.86
25.01
51.55
72.69
86.71
93.25
93.09
87.56
78.18
66.37
53.48
40.71
29.11
19.34
11.57
5.38
-0.08
-5.74
-12.23
-19.57
-27.38
-34.99
-42.08
-48.85
-55.96
-64.21
-73.91
-84.46
-94.28
-101.22
-103.14
-98.70
-87.82
-71.66
-52.27
-32.02
-13.06
3.09
15.54
24.09
28.98
30.92
30.83
29.65
28.18
26.83
25.62
24.31
22.65
20.62
18.49
16.78
15.90
15.94
16.44
16.37
14.32
8.90
-0.85
-14.91
-32.05
-49.82
-64.93
-74.19
-75.42
-68.18
-53.92
-35.57
-16.56
0.14
12.63
20.21
23.16
22.27
18.56
13.08
6.85
0.87
-4.04
-7.42
-9.15
-9.49
-8.87
-7.73
-6.41
-5.13
-4.03
-3.28
-3.10
-3.79
-5.70
-9.15
-14.35
-21.25
-29.32
-37.37
-43.51
-45.57
-41.70
-31.10
-14.51
5.93
27.37
47.20
63.79
76.70
86.21
92.75
96.39
96.97
94.41
89.15
82.31
75.27
69.12
64.21
60.08
55.79
50.51
43.91
36.31
28.42
20.93
14.17
7.96
1.81
-5.00
-12.92
-21.99
-31.57
-40.36
-46.51
-47.95
-42.98
-30.82
-12.10
11.10
35.72
58.50
76.98
90.00
97.88
101.82
103.07
102.16
98.71
91.70
80.26
64.48
45.63
26.16
8.77
-4.24
-11.80
-14.43
-14.22
-14.51
-19.35
-32.87
-58.30
-96.68
-145.76
-199.56
-249.37
-286.04
-302.89
-298.00
-274.71
-240.12
-202.22
-166.97
-136.76
-110.56
-85.42
-58.36
-27.71
6.30
41.89
76.34
106.94
131.85
150.52
163.89
173.66
181.43
187.90
192.46
193.31
187.90
173.91
150.37
118.81
83.80
52.10
30.36
22.13
25.56
33.43
35.96
25.26
-0.93
-38.10
-76.99
-107.63
-123.11
-121.32
-104.43
-76.97
-43.98
-10.10
20.54
44.26
58.22
61.17
54.20
40.80
26.00
14.86
10.84
14.89
25.34
38.76
51.14
59.15
61.02
56.82
48.28
37.98
28.40
20.95
15.47
10.46
3.94
-5.20
-16.33
-26.85
-33.23
-32.56
-24.07
-9.52
7.45
22.96
34.38
41.11
44.15
45.08
45.01
44.17
42.25
39.09
35.19
31.59
29.28
28.42
28.14
26.81
22.94
15.90
6.35
-4.02
-13.19
-19.62
-22.85
-23.64
-23.71
-25.07
-29.34
-37.01
-47.17
-57.64
-65.55
-68.30
-64.35
-53.72
-37.86
-19.03
0.33
18.22
33.18
44.21
50.67
52.27
49.25
42.62
34.07
25.71
19.37
16.09
15.76
17.21
18.82
19.20
17.77
14.84
11.27
7.73
4.21
-0.14
-6.64
-16.35
-29.43
-44.80
-60.24
-72.97
-80.40
-80.75
-73.50
-59.46
-40.48
-19.05
2.20
20.88
35.23
44.15
47.32
45.15
38.59
29.01
17.91
6.61
-3.85
-12.88
-20.27
-26.17
-30.84
-34.65
-37.82
-40.40
-42.30
-43.41
-43.85
-44.11
-45.06
-47.62
-52.49
-59.66
-68.22
-76.41
-81.98
-82.82
-77.62
-66.40
-50.41
-31.82
-13.07
3.76
17.22
26.61
31.86
33.23
31.24
26.57
19.96
12.20
4.07
-3.74
-10.70
-16.48
-21.10
-24.93
-28.51
-32.28
-36.27
-39.99
-42.76
-44.21
-44.67
-45.28
-47.44
-52.18
-59.33
-67.44
-73.98
-76.25
-72.34
-61.78
-45.60
-26.03
-5.65
13.18
28.93
40.89
49.02
53.65
55.27
54.49
52.05
48.80
45.52
42.81
40.84
39.42
38.05
36.21
33.54
29.99
25.78
21.28
16.75
12.17
7.17
1.18
-6.22
-14.92
-23.97
-31.63
-35.82
-34.83
-27.95
-15.92
-0.73
15.09
29.11
39.75
46.36
49.17
48.90
46.49
42.91
39.09
35.81
33.62
32.63
32.58
32.86
32.81
31.99
30.24
27.74
24.87
21.97
19.19
16.39
13.22
9.13
3.53
-3.99
-13.32
-23.65
-33.28
-39.99
-41.49
-36.37
-24.66
-8.00
10.72
28.34
42.27
51.17
55.00
54.83
52.16
48.38
44.46
40.92
37.75
34.83
32.03
29.29
26.94
25.31
24.43
23.86
22.84
20.30
15.72
9.07
0.72
-8.23
-16.36
-21.85
-22.23
-14.54
3.38
32.31
70.43
113.19
155.43
192.63
222.23
243.75
258.16
266.21
269.01
267.76
260.15
246.30
228.46
209.96
193.57
183.56
178.35
174.96
170.82
164.22
153.78
139.24
120.66
98.40
73.24
45.75
17.22
-11.26
-39.33
-66.84
-93.96
-120.97
-147.82
-173.98
-198.99
-222.06
-242.87
-261.94
-280.24
-299.34
-321.48
-349.23
-384.56
-427.70
-475.48
-521.35
-556.95
-574.74
-571.04
-547.64
-511.00
-469.63
-430.99
-399.08
-374.44
-355.48
-340.25
-327.54
-316.88
-307.87
-299.49
-290.19
-278.26
-262.61
-242.90
-219.58
-193.32
-164.59
-133.47
-99.71
-63.09
-23.75
17.56
59.58
100.81
140.13
177.35
213.35
249.39
285.98
321.69
352.70
373.66
379.60
368.03
340.29
301.30
257.92
216.93
183.25
159.34
145.45
140.20
141.14
145.13
148.73
148.95
144.07
134.24
121.49
109.03
100.14
97.13
100.69
109.88
122.60
136.22
148.32
157.11
161.69
162.04
158.71
152.54
144.26
134.38
123.23
111.16
98.73
86.72
75.90
66.68
58.80
51.23
42.39
30.65
14.80
-5.49
-29.53
-55.58
-81.10
-103.00
-118.15
-123.98
-119.08
-103.79
-80.25
-51.95
-22.95
3.15
23.90
38.31
46.59
49.78
49.21
46.30
42.37
38.64
35.95
34.59
34.20
33.89
32.69
30.04
26.07
21.50
17.27
14.06
11.94
10.32
8.14
4.22
-2.33
-11.77
-23.42
-35.65
-46.08
-52.19
-52.07
-45.10
-32.20
-15.62
1.84
17.55
29.67
37.43
40.90
40.73
37.81
33.08
27.47
21.76
16.62
12.43
9.36
7.38
6.39
6.33
7.24
9.09
11.75
14.79
17.49
18.86
17.86
13.59
5.64
-5.60
-18.76
-31.55
-41.20
-45.10
-41.65
-30.85
-14.31
5.18
24.49
41.03
53.25
60.71
63.82
63.45
60.56
56.02
50.56
44.76
39.06
33.70
28.81
24.36
20.24
16.39
12.79
9.51
6.58
3.92
1.29
-1.72
-5.61
-10.84
-17.55
-25.39
-33.46
-40.33
-44.37
-44.15
-38.96
-29.09
-15.86
-1.15
12.99
24.95
33.85
39.54
42.37
42.92
41.70
39.14
35.57
31.36
26.87
22.45
18.37
14.72
11.42
8.38
5.52
2.86
0.51
-1.48
-3.28
-5.39
-8.52
-13.31
-20.08
-28.48
-37.43
-45.21
-49.90
-49.90
-44.46
-33.90
-19.57
-3.45
12.33
25.99
36.37
42.87
45.47
44.46
40.50
34.52
27.68
21.13
15.73
11.87
9.33
7.53
5.78
3.63
0.92
-2.19
-5.43
-8.59
-11.66
-14.86
-18.55
-23.16
-28.99
-36.02
-43.67
-50.68
-55.32
-55.84
-51.09
-41.03
-26.88
-10.83
4.62
17.36
26.20
30.98
32.30
31.17
28.68
25.66
22.72
20.16
18.10
16.42
14.83
12.94
10.45
7.20
3.26
-1.07
-5.39
-9.33
-12.71
-15.66
-18.65
-22.34
-27.36
-33.81
-41.08
-47.72
-51.82
-51.66
-46.25
-35.83
-21.75
-6.09
9.00
21.82
31.38
37.42
40.18
40.23
38.21
34.77
30.47
25.79
21.15
16.85
13.06
9.76
6.80
3.99
1.15
-1.72
-4.58
-7.35
-10.11
-13.12
-16.83
-21.69
-27.95
-35.30
-42.78
-48.85
-51.73
-49.96
-42.97
-31.35
-16.74
-1.35
12.74
24.07
32.00
36.53
38.05
37.08
34.17
29.96
25.19
20.64
16.98
14.49
12.99
11.91
10.55
8.35
5.14
1.14
-3.22
-7.42
-11.21
-14.61
-17.96
-21.80
-26.58
-32.42
-38.87
-44.75
-48.43
-48.26
-43.21
-33.41
-20.17
-5.62
8.02
19.07
26.75
31.08
32.56
31.77
29.24
25.47
21.03
16.59
12.78
9.93
8.02
6.62
5.10
2.98
0.14
-3.11
-6.22
-8.73
-10.48
-11.84
-13.50
-16.23
-20.50
-26.31
-33.03
-39.52
-44.29
-45.84
-43.06
-35.61
-24.17
-10.39
3.57
15.67
24.52
29.67
31.46
30.57
27.76
23.59
18.56
13.21
8.17
4.03
1.13
-0.63
-1.72
-2.81
-4.39
-6.67
-9.45
-12.33
-14.95
-17.20
-19.32
-21.89
-25.61
-30.98
-37.92
-45.49
-51.99
-55.35
-53.84
-46.76
-34.75
-19.67
-4.01
9.96
20.70
27.68
31.06
31.39
29.34
25.55
20.75
15.79
11.57
8.71
7.40
7.26
7.48
7.23
6.03
3.86
1.22
-1.26
-3.08
-4.13
-4.81
-5.82
-8.03
-12.03
-17.79
-24.46
-30.45
-33.78
-32.72
-26.53
-15.76
-2.19
11.80
24.02
33.12
38.78
41.43
41.78
40.33
37.34
32.98
27.72
22.34
17.76
14.62
12.91
11.98
10.86
8.86
5.82
2.15
-1.53
-4.85
-7.87
-10.98
-14.59
-18.87
-23.61
-28.35
-32.52
-35.51
-36.68
-35.33
-30.92
-23.30
-12.95
-1.10
10.60
20.49
27.42
30.95
31.35
29.37
25.89
21.70
17.35
13.17
9.31
5.94
3.22
1.36
0.57
0.84
1.98
3.42
4.46
4.44
2.98
0.04
-4.15
-9.31
-15.22
-21.71
-28.36
-34.29
-38.22
-38.72
-34.87
-26.69
-15.32
-2.72
8.93
17.93
23.41
25.35
24.35
21.27
16.94
12.03
7.06
2.43
-1.48
-4.47
-6.45
-7.60
-8.24
-8.79
-9.57
-10.68
-12.07
-13.55
-15.02
-16.55
-18.41
-20.95
-24.43
-28.84
-33.70
-38.06
-40.60
-39.97
-35.24
-26.31
-14.10
-0.34
12.97
24.13
32.13
36.70
38.14
36.96
33.77
29.15
23.83
18.59
14.20
11.05
9.07
7.70
6.14
3.79
0.41
-3.78
-8.20
-12.25
-15.60
-18.26
-20.62
-23.40
-27.22
-32.43
-38.68
-44.86
-49.25
-50.08
-46.22
-37.71
-25.89
-12.97
-1.19
7.79
13.31
15.55
15.12
12.65
8.71
3.85
-1.36
-6.27
-10.37
-13.49
-15.81
-17.77
-19.81
-22.16
-24.83
-27.69
-30.66
-33.81
-37.35
-41.56
-46.72
-52.96
-60.03
-67.12
-72.85
-75.42
-73.18
-65.19
-51.69
-34.17
-14.93
3.57
19.43
31.62
40.06
45.26
47.93
48.81
48.49
47.52
46.33
45.32
44.63
44.21
43.79
43.02
41.61
39.51
36.88
34.02
31.10
28.10
24.74
20.58
15.26
8.79
1.66
-5.05
-9.91
-11.52
-8.99
-2.35
7.38
18.29
28.31
35.72
39.72
40.52
39.04
36.43
33.51
30.56
27.40
23.66
19.02
13.43
7.09
0.31
-6.53
-13.18
-19.57
-25.82
-32.16
-38.85
-45.98
-53.43
-60.89
-67.88
-73.91
-78.42
-80.66
-79.76
-74.85
-65.50
-52.06
-35.84
-18.70
-2.54
11.43
23.03
32.75
41.27
48.71
54.39
57.02
55.41
49.16
39.09
27.15
15.71
6.81
1.46
-0.45
0.16
2.22
4.94
7.95
11.01
13.49
14.30
12.05
5.79
-4.15
-15.76
-25.65
-29.96
-25.65
-11.57
11.23
39.73
69.82
97.28
118.39
130.35
131.51
121.52
101.50
74.12
43.17
12.88
-13.10
-32.49
-44.75
-50.77
-52.27
-51.01
-48.41
-45.30
-42.17
-39.45
-37.71
-37.73
-40.33
-46.08
-54.96
-66.13
-77.88
-87.94
-93.94
-94.05
-87.46
-74.66
-57.29
-37.70
-18.29
-0.96
13.20
23.85
31.19
35.62
37.57
37.55
36.11
33.92
31.62
29.59
27.85
26.05
23.69
20.38
16.11
11.24
6.32
1.80
-2.32
-6.53
-11.70
-18.70
-28.00
-39.20
-50.96
-61.20
-67.70
-68.73
-63.77
-53.65
-40.27
-25.92
-12.58
-1.53
6.82
12.57
16.04
17.47
17.19
15.63
13.54
11.85
11.31
12.22
14.19
16.35
17.78
17.89
16.66
14.59
12.27
10.05
7.81
5.01
1.00
-4.69
-12.02
-20.32
-28.43
-34.82
-38.01
-36.86
-31.04
-21.13
-8.53
4.86
17.21
27.13
33.94
37.60
38.50
37.23
34.43
30.73
26.71
22.90
19.64
17.06
14.96
12.94
10.49
7.30
3.39
-0.86
-4.89
-8.22
-10.79
-13.06
-15.90
-20.24
-26.58
-34.63
-43.22
-50.61
-54.91
-54.75
-49.64
-40.18
-27.76
-14.09
-0.72
11.33
21.62
30.04
36.59
41.12
43.41
43.31
40.94
36.85
31.86
26.87
22.53
19.10
16.43
14.12
11.74
9.02
6.00
2.92
0.09
-2.37
-4.71
-7.56
-11.71
-17.74
-25.69
-34.66
-43.03
-48.69
-49.79
-45.33
-35.47
-21.60
-5.76
9.84
23.56
34.45
42.33
47.41
50.02
50.39
48.76
45.53
41.30
36.81
32.73
29.42
26.83
24.62
22.30
19.52
16.22
12.61
9.13
6.16
3.86
2.08
0.38
-1.81
-5.07
-9.83
-16.26
-24.21
-33.12
-41.90
-49.06
-52.94
-52.23
-46.42
-36.10
-22.83
-8.62
4.62
15.62
23.87
29.47
32.78
34.13
33.68
31.60
28.19
23.98
19.74
16.20
13.78
12.44
11.69
10.78
9.10
6.37
2.75
-1.30
-5.27
-8.81
-11.89
-14.71
-17.71
-21.33
-25.94
-31.73
-38.67
-46.46
-54.33
-61.04
-65.02
-64.74
-59.26
-48.57
-33.87
-17.16
-0.83
13.12
23.51
30.09
33.35
34.12
33.16
31.08
28.29
25.13
21.98
19.22
17.16
16.00
15.76
16.23
16.94
17.40
17.12
15.91
13.97
11.78
10.00
9.04
8.90
9.08
8.86
7.48
4.47
-0.33
-6.75
-14.32
-22.18
-29.07
-33.46
-33.95
-29.83
-21.43
-10.10
2.14
13.31
21.95
27.47
30.06
30.47
29.57
28.02
26.16
24.03
21.57
18.84
16.13
13.90
12.51
12.09
12.38
12.87
13.02
12.55
11.40
9.80
8.04
6.43
5.24
4.59
4.47
4.64
4.74
4.26
2.75
-0.07
-4.20
-9.18
-14.05
-17.49
-18.15
-15.02
-7.89
2.45
14.36
25.88
35.35
41.91
45.52
46.80
46.54
45.38
43.65
41.45
38.78
35.80
32.81
30.21
28.35
27.32
26.93
26.74
26.19
24.79
22.34
18.90
14.71
10.06
5.15
0.06
-5.22
-10.73
-16.51
-22.65
-29.20
-36.10
-42.96
-48.85
-52.48
-52.49
-48.02
-39.27
-27.59
-15.08
-3.97
4.17
8.83
10.40
9.74
7.69
4.66
0.79
-3.87
-8.95
-13.76
-17.49
-19.54
-19.94
-19.27
-18.55
-18.67
-20.11
-22.73
-25.95
-28.99
-31.34
-32.84
-33.70
-34.47
-35.68
-37.82
-41.12
-45.45
-50.28
-54.65
-57.32
-57.06
-53.02
-45.08
-33.89
-20.80
-7.39
4.87
14.96
22.48
27.44
30.19
31.15
30.79
29.55
27.89
26.28
25.07
24.41
24.13
23.81
22.88
20.88
17.71
13.69
9.54
6.19
4.43
4.57
6.32
8.77
10.69
10.84
8.40
3.29
-3.73
-11.16
-17.16
-20.01
-18.66
-13.04
-4.01
6.87
17.89
27.62
35.10
39.92
42.00
41.48
38.69
34.11
28.53
22.91
18.23
15.13
13.73
13.56
13.72
13.31
11.87
9.49
6.78
4.51
3.15
2.69
2.60
2.13
0.57
-2.49
-7.12
-12.93
-19.09
-24.31
-27.03
-25.81
-19.91
-9.61
3.74
18.19
31.81
43.25
51.91
57.78
61.10
62.02
60.68
57.24
52.13
46.03
39.66
33.53
27.78
22.14
16.22
9.76
2.81
-4.22
-10.75
-16.23
-20.36
-23.17
-25.07
-26.57
-28.28
-30.73
-34.27
-38.76
-43.55
-47.31
-48.49
-45.73
-38.51
-27.46
-14.28
-1.13
10.04
18.06
22.78
24.68
24.50
22.91
20.33
17.11
13.66
10.49
8.04
6.50
5.60
4.82
3.50
1.26
-1.93
-5.68
-9.44
-12.79
-15.57
-18.08
-20.92
-24.79
-30.24
-37.34
-45.48
-53.41
-59.46
-62.04
-60.17
-53.82
-43.98
-32.32
-20.62
-10.30
-2.26
3.16
5.94
6.28
4.57
1.47
-2.21
-5.68
-8.43
-10.46
-12.05
-13.68
-15.64
-17.90
-20.17
-22.15
-23.64
-24.72
-25.63
-26.70
-28.35
-31.02
-35.18
-41.17
-48.79
-57.07
-64.22
-68.01
-66.51
-58.86
-45.70
-29.03
-11.51
4.41
17.21
26.42
32.34
35.56
36.53
35.60
33.13
29.59
25.61
21.73
18.23
15.05
11.99
8.78
5.32
1.68
-2.01
-5.65
-9.29
-13.13
-17.44
-22.55
-28.78
-36.15
-44.24
-51.98
-57.73
-59.72
-56.59
-47.99
-34.79
-18.81
-2.33
12.59
24.64
33.29
38.67
41.25
41.52
39.96
37.01
33.13
28.77
24.30
19.89
15.59
11.42
7.48
3.99
1.29
-0.45
-1.33
-1.78
-2.47
-4.14
-7.33
-12.26
-18.69
-25.84
-32.45
-37.00
-37.97
-34.39
-26.20
-14.34
-0.56
13.10
24.89
33.72
39.24
41.69
41.59
39.60
36.35
32.47
28.54
25.02
22.12
19.75
17.59
15.20
12.26
8.64
4.46
0.03
-4.32
-8.40
-12.26
-16.30
-21.12
-27.24
-34.68
-42.71
-49.85
-54.15
-53.93
-48.40
-38.08
-24.64
-10.31
2.85
13.49
21.15
26.00
28.48
29.00
27.88
25.39
21.96
18.11
14.31
10.87
7.81
4.98
2.12
-0.90
-4.08
-7.31
-10.45
-13.46
-16.46
-19.82
-24.04
-29.61
-36.62
-44.45
-51.66
-56.26
-56.38
-50.97
-40.38
-26.17
-10.58
4.32
17.23
27.74
36.01
42.33
46.82
49.47
50.36
49.84
48.49
46.84
45.11
43.07
40.23
36.12
30.54
23.75
16.27
8.70
1.43
-5.46
-12.24
-19.41
-27.41
-36.37
-45.78
-54.39
-60.45
-62.12
-58.22
-48.64
-34.50
-17.90
-1.19
13.69
25.62
34.36
40.25
43.83
45.51
45.55
44.13
41.50
38.06
34.27
30.49
26.86
23.23
19.30
14.93
10.23
5.58
1.47
-1.84
-4.49
-7.08
-10.36
-15.03
-21.32
-28.74
-36.09
-41.70
-43.84
-41.26
-33.70
-22.05
-8.10
6.04
18.57
28.49
35.58
40.23
42.99
44.29
44.40
43.53
42.01
40.29
38.84
37.93
37.50
37.15
36.34
34.53
31.45
27.11
21.82
16.09
10.39
4.98
-0.27
-5.82
-12.33
-20.25
-29.51
-39.24
-47.87
-53.50
-54.52
-50.08
-40.55
-27.25
-12.13
2.86
16.23
27.02
34.88
39.68
41.56
40.79
37.93
33.89
29.74
26.57
25.10
25.43
27.00
28.88
30.05
29.84
28.11
25.21
21.71
18.09
14.42
10.38
5.33
-1.34
-9.91
-20.19
-31.44
-42.42
-51.55
-57.21
-58.11
-53.69
-44.35
-31.47
-17.05
-3.16
8.67
17.66
23.73
27.19
28.39
27.56
24.98
21.16
16.96
13.42
11.35
10.97
11.84
13.04
13.75
13.58
12.72
11.78
11.38
11.77
12.76
13.80
14.14
13.10
10.15
5.08
-1.83
-9.62
-16.72
-21.22
-21.48
-16.74
-7.57
4.30
16.55
27.07
34.62
38.95
40.55
40.10
38.12
34.96
31.05
27.14
24.15
22.79
22.99
23.87
24.06
22.44
18.77
13.72
8.52
4.16
0.88
-1.76
-4.44
-7.56
-11.02
-14.42
-17.46
-20.13
-22.52
-24.37
-24.90
-22.84
-16.95
-6.72
7.37
23.80
40.58
55.64
67.41
74.87
77.63
75.81
69.98
61.16
50.73
40.22
31.11
24.42
20.53
19.06
19.05
19.12
17.91
14.26
7.41
-2.92
-16.51
-32.71
-50.44
-68.37
-85.21
-99.84
-111.47
-119.40
-122.93
-121.25
-113.74
-100.53
-82.83
-63.08
-44.40
-29.69
-20.85
-18.23
-20.72
-26.26
-32.52
-37.41
-39.45
-37.90
-32.76
-24.66
-14.69
-4.11
5.98
14.84
22.16
27.88
32.04
34.58
35.31
34.07
30.91
26.16
20.42
14.47
9.03
4.78
2.42
2.64
6.14
13.34
24.04
37.29
51.55
65.04
76.24
84.09
87.91
87.22
81.66
71.19
56.49
39.29
22.15
7.76
-1.99
-6.59
-6.95
-4.68
-1.27
2.59
6.99
12.27
18.32
24.08
27.65
26.84
19.99
6.63
-12.18
-33.98
-55.49
-73.44
-85.39
-90.43
-89.29
-84.03
-77.17
-70.74
-65.62
-61.41
-56.91
-50.97
-43.15
-34.11
-25.28
-18.33
-14.59
-14.66
-18.47
-25.44
-34.69
-45.07
-55.17
-63.39
-68.12
-68.29
-63.74
-55.47
-45.37
-35.67
-28.20
-23.90
-22.62
-23.35
-24.52
-24.54
-22.19
-16.95
-9.16
0.04
9.15
16.85
22.73
27.47
32.77
40.50
51.81
66.39
82.36
96.68
106.10
107.98
100.94
85.04
61.73
33.67
4.43
-22.14
-42.56
-54.57
-57.71
-53.46
-44.58
-34.13
-24.44
-16.44
-9.64
-2.78
5.30
14.97
25.46
35.13
42.12
45.00
43.32
37.53
28.73
18.09
6.49
-5.48
-17.29
-28.05
-36.67
-42.09
-43.86
-42.70
-40.32
-38.88
-40.04
-44.16
-50.11
-55.79
-58.97
-58.32
-53.92
-47.10
-39.76
-33.49
-28.84
-25.00
-20.15
-12.31
-0.27
15.70
33.79
51.20
65.29
74.51
79.01
80.46
81.47
84.51
90.81
99.74
108.49
112.44
106.11
84.95
47.58
-2.57
-56.95
-103.97
-132.61
-136.47
-116.13
-78.80
-35.42
3.27
29.97
41.96
40.25
28.05
9.36
-11.54
-30.15
-42.11
-44.14
-35.22
-17.26
5.48
27.97
45.90
57.00
61.22
60.16
56.05
50.91
45.86
40.85
34.68
25.43
11.25
-8.66
-33.29
-59.68
-83.55
-100.72
-108.45
-106.41
-96.76
-83.25
-69.98
-60.16
-55.30
-54.99
-57.22
-59.09
-57.68
-50.91
-38.08
-20.16
0.63
21.43
39.61
53.37
61.96
65.59
64.99
61.12
54.94
47.40
39.35
31.53
24.43
18.23
12.82
7.96
3.50
-0.35
-2.90
-3.03
0.41
8.15
19.93
34.25
48.46
59.33
63.94
60.66
49.75
33.36
14.96
-1.71
-13.64
-19.20
-18.33
-12.14
-2.36
9.24
21.14
32.11
41.16
47.37
49.92
48.27
42.33
32.74
20.83
8.41
-2.71
-11.22
-16.74
-19.92
-22.15
-25.01
-29.59
-36.22
-44.38
-53.08
-61.39
-68.69
-74.63
-78.82
-80.58
-78.98
-73.20
-63.09
-49.42
-33.71
-17.64
-2.43
11.47
24.13
35.68
45.94
54.32
60.18
63.13
63.22
60.86
56.65
51.25
45.39
39.88
35.57
33.09
32.55
33.36
34.35
34.04
31.09
24.76
15.25
4.01
-6.16
-11.62
-8.89
3.89
25.79
52.62
77.82
94.40
97.22
84.65
58.88
24.97
-10.86
-42.95
-67.33
-82.00
-86.73
-82.61
-71.58
-56.12
-38.81
-21.92
-7.07
4.93
14.04
20.51
24.52
25.76
23.47
16.71
4.78
-12.31
-33.67
-57.43
-80.90
-100.96
-114.60
-119.57
-115.03
-101.84
-82.37
-59.92
-37.77
-18.40
-3.00
8.29
15.97
20.71
23.03
23.47
22.74
21.79
21.59
22.77
25.35
28.68
31.74
33.55
33.58
31.80
28.61
24.48
19.76
14.54
8.66
1.94
-5.65
-13.67
-21.21
-26.89
-29.30
-27.41
-21.02
-10.72
2.35
17.08
32.82
49.27
66.12
82.47
96.64
106.45
109.97
106.37
96.22
81.29
63.79
45.61
28.02
11.78
-2.47
-13.84
-21.37
-24.32
-22.66
-17.21
-9.49
-1.28
5.72
10.17
11.13
8.22
1.67
-7.47
-17.46
-26.15
-31.66
-33.08
-30.76
-26.32
-21.98
-19.81
-20.99
-25.40
-31.64
-37.42
-40.25
-38.28
-31.01
-19.60
-6.70
4.37
10.53
9.96
2.59
-9.91
-24.65
-38.23
-47.65
-50.89
-47.46
-38.52
-26.76
-15.62
-8.34
-6.91
-11.35
-19.77
-29.08
-36.14
-38.79
-36.43
-29.92
-20.99
-11.51
-3.12
2.86
5.29
3.30
-3.11
-12.35
-20.88
-23.81
-16.59
2.81
32.51
66.70
97.66
118.53
125.75
119.87
104.55
84.39
62.85
41.30
19.46
-3.23
-26.33
-48.01
-65.49
-76.20
-78.84
-73.70
-62.48
-47.52
-31.06
-14.79
0.13
12.91
22.93
29.56
32.39
31.46
27.31
20.93
13.49
5.91
-1.35
-8.31
-15.25
-22.38
-29.51
-36.04
-41.19
-44.26
-45.05
-43.89
-41.61
-39.37
-38.43
-39.93
-44.63
-52.56
-62.70
-72.92
-80.40
-82.33
-76.92
-64.06
-45.41
-23.87
-2.56
16.06
30.72
41.28
48.28
52.42
54.21
53.96
51.90
48.40
44.02
39.42
35.24
31.99
30.14
30.22
32.83
38.51
47.57
59.87
74.57
90.22
104.90
116.57
123.43
124.36
119.10
108.38
93.75
77.20
60.71
45.90
33.85
25.13
20.01
18.61
20.85
26.41
34.48
43.74
52.50
59.13
62.44
62.07
58.43
52.45
45.15
37.27
29.24
21.27
13.58
6.61
0.91
-3.06
-5.31
-6.46
-7.83
-11.11
-17.92
-29.40
-45.60
-65.29
-85.91
-104.10
-116.51
-120.83
-116.54
-105.07
-89.32
-72.76
-58.44
-48.42
-43.46
-43.30
-46.95
-52.98
-59.82
-65.99
-70.27
-71.90
-70.62
-66.64
-60.42
-52.53
-43.58
-34.16
-24.85
-16.30
-9.17
-4.15
-1.88
-2.96
-7.76
-16.13
-27.21
-39.26
-49.84
-56.36
-56.87
-50.62
-38.49
-22.59
-5.61
10.13
23.19
33.23
40.54
45.50
48.05
47.74
43.96
36.52
25.98
13.70
1.55
-8.41
-14.47
-15.49
-11.05
-1.66
11.42
26.27
40.56
52.04
59.03
60.80
57.68
50.91
42.23
33.53
26.54
22.71
23.13
28.42
38.34
51.73
66.47
80.03
90.19
95.79
96.89
94.56
90.10
84.32
77.30
68.62
57.91
45.46
32.23
19.55
8.53
-0.36
-7.43
-13.45
-19.22
-25.11
-31.01
-36.37
-40.59
-43.36
-44.83
-45.63
-46.68
-48.87
-52.76
-58.17
-64.12
-68.99
-70.96
-68.69
-61.80
-51.06
-38.21
-25.34
-14.34
-6.50
-2.39
-1.98
-4.82
-10.13
-16.86
-23.80
-29.92
-34.66
-38.14
-41.08
-44.47
-49.05
-55.10
-62.29
-69.97
-77.34
-83.71
-88.52
-91.43
-92.21
-90.93
-88.00
-84.01
-79.56
-74.89
-69.69
-63.21
-54.58
-43.29
-29.60
-14.48
0.63
14.34
25.71
34.50
40.96
45.64
49.15
52.05
54.77
57.62
60.66
63.57
65.61
65.85
63.46
58.14
50.46
41.86
34.35
29.89
29.75
33.91
40.90
48.06
52.27
50.77
42.16
26.85
7.09
-13.57
-31.24
-42.69
-46.14
-41.51
-30.28
-14.84
2.11
18.21
31.77
41.95
48.64
52.27
53.55
53.18
51.69
49.39
46.40
42.76
38.55
33.91
28.91
23.47
17.21
9.51
-0.40
-13.15
-29.09
-48.08
-69.33
-91.49
-112.67
-130.77
-143.79
-150.26
-149.55
-141.96
-128.72
-111.77
-93.39
-75.82
-60.90
-49.79
-42.77
-39.29
-38.10
-37.60
-36.23
-32.88
-27.11
-19.10
-9.54
0.64
10.49
19.19
26.08
30.70
32.79
32.33
29.62
25.25
20.02
14.70
9.88
5.93
3.17
2.20
4.03
10.01
21.36
38.51
60.69
85.74
110.46
131.28
144.97
149.27
143.19
127.18
103.05
73.70
42.70
13.75
-9.95
-26.28
-34.37
-34.70
-28.90
-19.30
-8.51
1.12
7.91
11.08
10.79
7.91
3.52
-1.53
-6.95
-12.93
-19.83
-27.64
-35.59
-42.14
-45.39
-43.84
-37.07
-26.09
-13.21
-1.39
6.58
8.86
4.96
-4.22
-16.77
-30.22
-42.16
-50.80
-55.32
-55.96
-53.96
-51.11
-49.20
-49.58
-52.77
-58.42
-65.56
-72.83
-78.87
-82.65
-83.62
-81.88
-77.99
-72.83
-67.12
-61.11
-54.40
-46.13
-35.38
-21.66
-5.27
12.74
30.81
47.46
61.58
72.78
81.25
87.54
92.20
95.63
98.10
99.94
101.68
104.17
108.22
114.13
121.23
127.76
131.11
128.60
118.19
99.06
71.74
38.03
0.69
-37.03
-71.69
-100.23
-120.38
-131.01
-132.11
-124.67
-110.18
-90.41
-67.19
-42.46
-18.21
3.58
21.27
33.80
40.94
43.21
41.71
37.65
31.95
25.03
16.85
7.13
-4.20
-16.72
-29.42
-40.94
-50.03
-55.94
-58.69
-58.96
-57.92
-56.79
-56.65
-58.36
-62.46
-69.22
-78.45
-89.29
-100.00
-108.09
-110.76
-105.59
-91.37
-68.58
-39.39
-7.05
24.97
53.78
77.54
95.48
107.62
114.46
116.75
115.48
111.77
106.78
101.53
96.74
92.65
89.29
86.75
85.51
86.59
91.36
100.89
115.23
132.74
150.02
162.53
165.75
156.43
133.55
98.63
55.45
9.32
-33.87
-68.72
-91.19
-99.40
-93.89
-77.43
-54.30
-29.18
-6.09
12.29
24.71
31.13
32.29
29.40
23.96
17.56
11.74
7.61
5.81
6.30
8.41
11.08
13.00
12.96
10.05
3.76
-5.99
-18.97
-34.66
-52.18
-70.21
-86.89
-99.97
-107.30
-107.53
-100.68
-88.39
-73.49
-59.15
-47.97
-41.33
-39.20
-40.55
-43.86
-47.58
-50.30
-50.78
-47.90
-40.79
-29.18
-13.61
4.39
22.57
38.58
50.61
57.83
60.45
59.38
55.67
50.15
43.39
35.84
28.20
21.64
17.73
18.22
24.64
37.90
57.88
83.13
110.73
136.59
156.10
165.03
160.47
141.55
109.67
68.34
22.70
-21.34
-57.99
-82.70
-93.05
-89.26
-74.17
-52.46
-29.42
-9.59
4.16
11.06
12.06
9.22
4.84
0.76
-2.01
-3.40
-4.06
-5.05
-7.40
-11.99
-19.19
-28.76
-39.71
-50.46
-59.06
-63.80
-63.70
-58.87
-50.46
-40.24
-29.95
-20.81
-13.41
-7.83
-3.96
-1.77
-1.35
-2.74
-5.86
-10.39
-15.99
-22.49
-29.91
-38.29
-47.28
-55.76
-61.84
-63.26
-58.22
-46.21
-28.34
-7.19
14.01
32.35
45.97
54.30
57.92
58.18
56.78
55.58
56.39
60.68
69.05
80.92
94.47
107.14
116.55
121.41
121.88
119.30
115.51
112.06
109.91
109.40
110.52
112.84
115.25
115.53
110.50
96.87
72.64
38.49
-1.69
-41.60
-74.47
-95.27
-102.24
-97.30
-84.98
-70.62
-58.70
-51.77
-50.23
-52.80
-57.31
-61.38
-62.98
-60.79
-54.37
-44.28
-31.99
-19.68
-9.82
-4.62
-5.57
-12.98
-25.71
-41.33
-56.43
-67.58
-72.29
-69.87
-61.63
-50.54
-40.14
-33.41
-31.82
-35.10
-41.50
-48.59
-54.03
-56.27
-54.73
-49.96
-43.33
-36.63
-31.59
-29.29
-29.75
-31.82
-33.45
-32.40
-27.11
-17.21
-3.74
11.27
25.55
37.38
46.12
52.38
57.69
63.98
72.98
85.65
101.94
120.77
140.35
158.48
172.97
181.93
184.05
178.69
166.02
146.88
122.41
93.54
60.72
24.32
-14.52
-53.08
-87.06
-111.68
-123.54
-122.39
-111.59
-96.83
-83.88
-76.25
-74.27
-75.67
-77.28
-76.69
-72.91
-66.13
-56.79
-44.92
-30.25
-12.80
6.51
25.62
41.76
52.42
56.16
53.15
45.03
34.25
23.18
13.48
5.75
-0.31
-5.39
-9.97
-14.07
-17.30
-19.29
-20.18
-20.88
-22.97
-28.23
-37.85
-52.02
-69.82
-89.40
-108.40
-124.24
-134.47
-137.04
-130.74
-115.61
-93.19
-66.38
-38.81
-14.05
5.22
17.65
23.19
22.80
18.13
11.05
3.58
-2.49
-5.76
-5.65
-2.45
2.59
7.69
11.17
12.01
10.31
7.36
5.11
5.41
9.37
16.85
26.57
36.59
44.96
50.25
51.77
49.52
44.04
36.23
27.23
18.27
10.57
5.19
2.94
4.38
9.67
18.54
30.12
42.94
55.14
64.87
70.90
73.10
72.45
70.73
69.85
71.18
75.09
80.94
87.24
92.28
94.59
93.51
89.37
83.40
77.24
72.20
68.50
64.91
59.08
48.55
31.95
9.99
-14.65
-38.25
-57.44
-70.43
-77.33
-79.73
-79.79
-79.42
-79.75
-81.07
-82.88
-84.04
-82.87
-77.43
-66.18
-48.62
-25.88
-0.81
22.61
40.30
49.20
48.16
38.08
21.44
1.44
-19.00
-37.78
-53.63
-65.94
-74.36
-78.83
-79.84
-78.62
-77.14
-77.54
-81.34
-88.62
-97.68
-105.39
-108.05
-102.68
-88.07
-65.34
-37.64
-9.16
16.41
36.86
51.76
61.85
67.98
70.35
68.48
61.89
51.06
37.79
24.91
15.26
10.68
11.35
16.00
22.53
28.74
32.92
33.98
31.52
25.77
17.52
8.05
-1.24
-9.27
-15.57
-20.41
-24.44
-28.12
-31.28
-32.95
-31.77
-26.65
-17.37
-4.73
9.62
23.80
36.18
45.63
51.49
53.38
51.19
45.09
35.72
24.29
12.45
1.91
-6.00
-10.70
-12.56
-12.68
-12.47
-13.17
-15.38
-19.01
-23.36
-27.59
-31.07
-33.73
-35.98
-38.48
-41.80
-45.95
-50.27
-53.44
-53.83
-49.98
-41.12
-27.48
-10.37
8.27
26.34
42.20
54.99
64.65
71.70
76.92
80.96
84.09
86.20
86.81
85.27
81.04
73.81
63.63
50.90
36.31
20.77
5.36
-8.84
-20.89
-30.32
-37.28
-42.59
-47.52
-53.29
-60.68
-69.62
-79.08
-87.31
-92.30
-92.35
-86.69
-75.70
-60.84
-44.22
-27.96
-13.65
-2.12
6.44
12.27
15.73
17.21
17.16
16.14
14.85
13.97
13.93
14.79
16.10
17.15
17.17
15.76
13.08
9.86
7.03
5.26
4.47
3.79
1.80
-2.86
-10.84
-21.71
-33.86
-44.87
-52.15
-53.63
-48.40
-36.96
-21.11
-3.33
13.90
28.77
40.35
48.35
52.66
53.09
49.37
41.57
30.52
17.93
5.97
-3.38
-9.17
-11.84
-13.01
-14.80
-18.83
-25.45
-33.49
-40.74
-44.84
-44.50
-40.27
-34.55
-30.81
-32.22
-40.25
-53.74
-68.81
-79.43
-78.80
-61.16
-23.84
31.22
97.09
163.12
217.51
250.89
259.32
245.62
218.32
188.46
165.75
155.41
157.01
165.75
175.15
180.13
178.89
173.09
166.21
161.26
158.91
157.14
152.39
141.54
123.33
98.52
69.18
37.53
5.37
-25.76
-54.01
-76.83
-91.56
-96.60
-92.53
-82.47
-71.23
-63.67
-63.09
-70.31
-83.78
-100.63
-117.77
-133.08
-145.84
-156.77
-167.46
-179.51
-193.76
-209.72
-225.81
-239.90
-250.24
-256.18
-258.31
-258.01
-256.72
-255.04
-252.36
-247.07
-237.05
-220.39
-195.69
-162.14
-119.53
-68.57
-11.36
48.22
104.94
153.43
189.91
213.33
225.29
228.89
226.80
219.91
206.98
185.72
154.38
113.17
64.69
13.27
-36.62
-82.00
-122.42
-159.49
-195.17
-229.76
-260.62
-282.74
-290.98
-282.74
-259.57
-226.44
-189.52
-153.47
-120.26
-89.67
-60.99
-34.40
-11.15
7.46
21.20
31.41
40.30
49.72
60.24
71.00
80.24
86.25
88.10
85.89
80.60
73.75
66.96
61.54
58.16
56.72
56.43
56.18
54.98
52.26
48.03
42.79
37.19
31.78
26.72
21.82
16.53
10.26
2.66
-6.07
-14.95
-22.38
-26.47
-25.63
-19.12
-7.44
7.84
24.55
40.63
54.66
66.00
74.56
80.43
83.59
83.97
81.77
77.56
72.38
67.29
62.97
59.47
56.35
53.00
49.07
44.64
40.18
36.22
33.11
30.77
28.74
26.23
22.33
16.29
7.81
-2.66
-13.72
-23.24
-28.83
-28.60
-21.81
-9.25
7.04
24.34
40.19
53.00
62.35
68.66
72.73
75.31
76.94
78.18
79.50
81.08
82.27
81.28
75.52
62.58
41.57
13.96
-16.52
-45.14
-67.84
-82.67
-90.08
-92.27
-91.98
-91.39
-91.66
-93.04
-95.22
-97.54
-98.98
-98.24
-93.93
-85.09
-71.69
-54.84
-36.57
-19.10
-4.25
7.07
14.81
19.46
21.64
21.94
20.87
18.95
16.80
14.98
13.83
13.38
13.33
13.19
12.59
11.37
9.62
7.57
5.41
3.12
0.53
-2.68
-6.79
-12.02
-18.44
-25.88
-33.75
-40.89
-45.68
-46.32
-41.51
-30.93
-15.55
2.66
21.36
38.56
53.02
64.26
72.15
76.60
77.49
74.85
69.20
61.74
54.08
47.78
43.64
41.57
40.54
39.23
36.58
32.31
26.89
21.21
16.13
11.97
8.50
4.98
0.51
-5.62
-13.70
-23.32
-33.29
-41.80
-46.78
-46.60
-40.68
-29.82
-15.99
-1.72
10.74
19.97
25.47
27.45
26.45
23.16
18.29
12.73
7.44
3.28
0.83
0.12
0.68
1.72
2.44
2.22
0.84
-1.56
-4.52
-7.54
-10.22
-12.48
-14.63
-17.28
-21.14
-26.71
-34.05
-42.59
-51.04
-57.60
-60.33
-57.77
-49.41
-36.09
-19.72
-2.73
12.75
25.41
34.86
41.37
45.35
47.03
46.44
43.78
39.62
34.98
31.03
28.61
27.80
27.97
28.11
27.24
24.93
21.41
17.42
13.89
11.42
10.11
9.46
8.55
6.37
2.20
-4.07
-11.71
-19.17
-24.43
-25.56
-21.36
-11.80
1.92
17.80
33.75
48.10
59.98
69.07
75.28
78.39
78.17
74.65
68.47
60.89
53.53
47.80
44.47
43.39
43.68
44.00
42.96
39.49
33.12
24.13
13.34
1.95
-8.91
-18.56
-26.88
-34.29
-41.45
-48.88
-56.66
-64.22
-70.35
-73.46
-72.04
-65.33
-53.68
-38.62
-22.38
-7.20
5.37
14.82
21.36
25.53
27.68
27.89
26.18
22.91
18.82
14.91
12.06
10.58
10.15
9.99
9.29
7.58
4.90
1.71
-1.47
-4.25
-6.65
-9.00
-11.81
-15.55
-20.52
-26.70
-33.71
-40.71
-46.46
-49.47
-48.43
-42.65
-32.43
-19.11
-4.72
8.69
19.56
27.23
31.76
33.58
33.15
30.81
26.83
21.70
16.17
11.10
7.15
4.51
2.84
1.51
-0.15
-2.45
-5.33
-8.41
-11.29
-13.75
-15.88
-18.05
-20.83
-24.81
-30.33
-37.29
-44.92
-51.89
-56.55
-57.38
-53.51
-45.12
-33.38
-20.14
-7.37
3.42
11.45
16.64
19.29
19.75
18.33
15.40
11.48
7.39
3.97
1.73
0.58
-0.10
-1.20
-3.31
-6.44
-10.01
-13.23
-15.53
-16.87
-17.78
-19.11
-21.67
-26.01
-32.28
-40.09
-48.42
-55.69
-60.04
-59.84
-54.33
-44.01
-30.51
-16.00
-2.47
8.86
17.59
23.87
27.96
29.93
29.80
27.72
24.23
20.17
16.38
13.33
10.95
8.72
6.00
2.38
-2.05
-6.80
-11.23
-14.89
-17.70
-20.04
-22.52
-25.77
-30.19
-35.82
-42.27
-48.63
-53.62
-55.81
-53.97
-47.57
-37.03
-23.65
-9.29
4.28
15.84
24.87
31.37
35.55
37.53
37.40
35.38
31.98
28.03
24.33
21.40
19.23
17.30
14.97
11.73
7.54
2.78
-1.93
-6.05
-9.35
-12.03
-14.71
-18.12
-22.91
-29.39
-37.29
-45.62
-52.83
-57.07
-56.74
-51.09
-40.47
-26.39
-10.94
3.78
16.30
25.96
32.84
37.30
39.63
39.92
38.16
34.57
29.72
24.54
19.94
16.54
14.41
13.11
11.91
10.16
7.60
4.42
1.11
-1.85
-4.28
-6.53
-9.33
-13.53
-19.64
-27.55
-36.37
-44.57
-50.36
-52.15
-49.06
-41.10
-29.14
-14.73
0.40
14.63
26.65
35.62
41.15
43.20
42.11
38.53
33.40
27.73
22.41
18.03
14.72
12.29
10.27
8.12
5.46
2.16
-1.60
-5.43
-8.93
-11.82
-14.19
-16.48
-19.43
-23.82
-30.09
-37.93
-46.25
-53.15
-56.54
-54.73
-47.10
-34.36
-18.43
-1.75
13.43
25.66
34.43
39.91
42.52
42.67
40.69
37.03
32.34
27.48
23.22
20.00
17.75
16.01
14.22
12.05
9.52
6.93
4.58
2.60
0.75
-1.49
-4.76
-9.66
-16.49
-24.93
-33.88
-41.45
-45.47
-44.17
-36.86
-24.27
-8.33
8.42
23.64
35.70
43.79
47.81
48.01
44.94
39.34
32.21
24.72
17.97
12.65
8.92
6.44
4.56
2.70
0.59
-1.70
-3.89
-5.72
-7.22
-8.71
-10.79
-14.05
-18.90
-25.33
-32.88
-40.57
-47.03
-50.71
-50.27
-45.03
-35.20
-21.95
-7.08
7.44
20.05
29.81
36.44
40.14
41.34
40.51
38.18
34.94
31.38
28.02
25.13
22.61
20.12
17.27
13.89
10.14
6.45
3.27
0.77
-1.30
-3.55
-6.72
-11.34
-17.60
-25.25
-33.58
-41.38
-47.09
-48.99
-45.68
-36.61
-22.42
-4.98
13.16
29.50
42.26
50.76
55.24
56.49
55.40
52.75
49.18
45.21
41.25
37.59
34.19
30.72
26.75
21.99
16.53
10.83
5.60
1.40
-1.55
-3.58
-5.45
-8.09
-12.31
-18.45
-26.12
-34.15
-40.77
-44.04
-42.48
-35.60
-24.16
-9.98
4.70
17.88
28.42
36.14
41.52
45.21
47.66
48.96
49.04
47.90
45.77
43.08
40.27
37.64
35.28
33.20
31.42
30.13
29.57
29.87
30.94
32.36
33.54
33.93
33.20
31.41
29.04
26.94
26.08
27.41
31.52
38.43
47.49
57.63
67.75
77.14
85.76
93.91
101.69
108.44
112.61
112.21
105.74
92.94
75.10
54.51
33.50
13.53
-5.21
-23.47
-42.22
-61.90
-82.11
-101.73
-119.45
-134.41
-146.73
-157.70
-169.60
-185.06
-205.98
-232.68
-263.28
-293.91
-319.59
-335.63
-338.88
-328.67
-306.99
-278.05
-247.18
-219.54
-198.69
-185.64
-178.66
-173.94
-167.12
-154.99
-136.60
-113.42
-88.47
-64.79
-44.42
-27.82
-14.23
-2.39
8.80
19.90
30.89
41.41
50.94
58.82
64.36
66.95
66.36
63.07
58.41
54.41
53.18
56.32
64.36
76.58
91.32
106.54
120.34
131.34
138.63
141.57
139.73
132.98
121.68
106.83
89.88
72.40
55.71
40.58
27.37
16.03
6.38
-1.98
-9.60
-17.21
-25.57
-35.22
-46.17
-57.87
-69.38
-79.77
-88.42
-95.06
-99.56
-101.65
-100.68
-95.83
-86.52
-72.93
-56.21
-38.15
-20.52
-4.48
9.83
23.05
36.06
49.38
63.01
76.45
89.11
100.54
110.47
118.71
124.93
128.65
129.36
126.71
120.64
111.33
99.17
84.51
67.72
49.22
29.61
9.83
-8.62
-23.93
-34.21
-38.14
-35.52
-27.66
-17.22
-7.44
-1.02
1.06
-0.04
-1.29
0.93
9.37
24.83
45.73
68.85
90.52
107.81
119.23
124.73
125.15
121.61
115.16
106.69
97.19
87.81
79.86
74.54
72.57
73.85
77.28
80.74
81.51
76.87
65.04
45.91
21.48
-4.47
-27.38
-43.32
-50.07
-47.68
-38.12
-24.48
-10.04
2.36
10.60
13.22
9.52
-0.29
-14.83
-31.50
-46.92
-57.67
-61.42
-57.71
-48.20
-36.18
-25.54
-19.57
-20.11
-27.29
-39.86
-55.80
-72.88
-88.90
-101.57
-108.51
-107.52
-97.19
-77.60
-50.78
-20.29
9.78
35.99
56.43
70.86
80.19
85.66
88.20
88.25
85.83
80.71
72.54
60.90
45.62
27.16
6.93
-12.78
-29.51
-41.51
-48.53
-51.76
-53.07
-53.96
-54.77
-54.62
-52.05
-45.89
-35.85
-22.63
-7.62
7.53
21.21
31.88
38.22
39.40
35.44
27.46
17.55
8.30
2.00
0.08
2.80
9.46
18.74
29.06
38.88
46.75
51.42
51.98
48.02
39.83
28.36
15.07
1.45
-11.26
-22.44
-32.08
-40.70
-49.02
-57.64
-66.68
-75.55
-82.95
-86.99
-85.68
-77.34
-61.20
-37.77
-9.03
21.61
49.87
71.28
82.16
80.48
66.54
43.03
14.66
-12.85
-34.01
-44.75
-43.37
-30.78
-10.19
13.79
36.39
53.73
63.51
65.07
59.15
47.27
31.44
13.93
-2.72
-15.75
-22.56
-21.30
-11.52
5.53
26.98
49.09
68.20
81.56
87.90
87.45
81.62
72.43
62.05
52.32
44.65
39.95
38.64
40.80
46.04
53.37
61.16
67.16
68.87
64.07
51.42
30.79
3.41
-28.37
-61.33
-91.73
-115.64
-129.42
-130.32
-117.20
-91.15
-55.56
-15.64
22.71
54.18
75.15
84.22
82.09
71.08
54.36
35.39
17.32
2.60
-7.30
-12.09
-12.67
-10.77
-8.54
-7.85
-9.89
-14.86
-22.15
-30.72
-39.57
-48.17
-56.55
-65.03
-73.79
-82.29
-89.17
-92.46
-90.32
-81.80
-67.45
-49.25
-30.13
-13.06
-0.15
7.72
11.01
11.00
9.27
7.13
5.42
4.41
4.07
4.32
5.32
7.46
11.25
17.04
24.63
33.20
41.28
47.15
49.19
46.48
39.15
28.44
16.59
6.34
0.32
0.33
6.94
19.32
35.62
53.51
70.95
86.59
99.80
110.37
117.87
121.37
119.31
109.85
91.41
63.41
27.14
-13.71
-53.06
-83.68
-99.40
-97.57
-80.57
-55.31
-30.80
-14.78
-10.96
-18.37
-32.78
-49.29
-64.51
-77.06
-86.74
-93.21
-95.22
-91.14
-80.09
-62.85
-41.83
-20.33
-1.18
14.11
25.54
34.08
40.77
46.02
49.43
50.12
47.29
40.80
31.38
20.48
9.85
0.92
-5.65
-10.11
-13.49
-17.09
-21.96
-28.47
-36.25
-44.43
-52.02
-58.37
-63.26
-66.82
-69.21
-70.27
-69.58
-66.59
-60.90
-52.60
-42.14
-30.22
-17.57
-4.95
6.82
16.86
24.32
28.90
31.04
32.04
33.64
37.27
43.46
51.56
60.04
67.18
71.69
73.13
71.94
68.99
65.19
61.15
57.13
53.03
48.66
43.88
38.68
33.34
28.37
24.36
21.83
21.08
21.96
23.91
26.04
27.40
27.24
25.19
21.33
15.99
9.64
2.71
-4.33
-11.05
-16.86
-21.20
-23.64
-24.16
-23.22
-21.67
-20.38
-19.84
-20.01
-20.32
-20.11
-18.98
-17.06
-15.02
-13.82
-14.30
-16.67
-20.28
-23.62
-24.81
-22.19
-14.97
-3.53
10.67
25.60
39.20
49.93
56.87
59.67
58.38
53.33
45.23
35.20
24.75
15.54
8.91
5.49
4.97
6.15
7.23
6.33
1.99
-6.43
-18.57
-33.25
-48.74
-63.20
-75.10
-83.47
-88.03
-89.00
-86.94
-82.56
-76.54
-69.60
-62.52
-56.03
-50.62
-46.35
-42.77
-38.98
-33.96
-26.94
-17.65
-6.36
6.24
19.30
31.88
43.05
51.94
57.86
60.47
59.91
56.84
52.28
47.37
42.91
39.30
36.45
34.01
31.57
28.78
25.39
21.22
16.16
10.42
4.68
0.01
-2.29
-1.22
3.59
11.70
22.11
33.62
45.21
56.19
65.93
73.74
78.77
80.21
77.63
71.20
61.62
49.98
37.31
24.44
11.89
0.03
-10.71
-19.78
-26.54
-30.43
-31.30
-29.56
-26.15
-22.42
-19.85
-19.72
-22.73
-28.79
-36.87
-45.28
-51.94
-55.07
-53.56
-47.26
-36.97
-24.22
-11.00
0.57
8.50
11.27
8.11
-0.63
-13.46
-27.91
-41.15
-50.66
-54.90
-53.63
-47.90
-39.68
-31.31
-24.86
-21.78
-22.72
-27.56
-35.68
-46.16
-58.00
-70.14
-81.47
-90.78
-96.81
-98.29
-94.18
-83.94
-67.68
-46.38
-21.78
3.82
27.92
48.26
63.22
72.00
74.74
72.45
66.75
59.58
52.79
47.71
44.97
44.34
44.88
45.32
44.53
41.90
37.62
32.61
28.28
26.06
27.00
31.36
38.40
46.48
53.31
56.49
54.08
45.23
30.62
12.45
-5.97
-21.16
-30.42
-32.65
-28.45
-19.77
-9.05
1.58
10.81
18.15
23.65
27.44
29.52
29.77
28.12
24.72
19.97
14.43
8.68
3.12
-2.03
-6.79
-11.33
-15.91
-20.90
-26.79
-34.15
-43.51
-55.11
-68.61
-82.89
-96.06
-105.73
-109.59
-106.12
-95.09
-77.83
-57.06
-36.29
-19.05
-8.03
-4.40
-7.60
-15.50
-25.03
-33.05
-37.12
-36.00
-29.81
-19.68
-7.30
5.64
17.85
28.52
37.32
44.11
48.79
51.12
50.83
47.72
41.86
33.59
23.49
12.23
0.49
-10.82
-20.42
-26.43
-26.77
-19.67
-4.52
17.63
43.98
70.74
94.08
111.10
120.31
121.52
115.43
103.16
85.98
65.41
43.26
21.70
2.81
-11.84
-21.64
-26.95
-28.79
-28.33
-26.45
-23.63
-20.12
-16.35
-13.03
-11.19
-11.89
-15.84
-23.24
-33.61
-45.87
-58.48
-69.63
-77.60
-81.14
-79.94
-74.77
-67.39
-59.81
-53.51
-48.68
-44.18
-38.12
-28.92
-16.43
-2.25
10.54
18.54
19.27
12.03
-1.86
-19.56
-37.59
-52.74
-62.71
-66.41
-63.88
-56.20
-45.15
-32.97
-22.03
-14.50
-12.00
-15.24
-23.82
-36.20
-49.98
-62.37
-70.75
-73.20
-68.78
-57.59
-40.59
-19.45
3.80
26.89
47.60
64.10
75.28
80.99
82.15
80.51
78.23
77.39
79.45
84.95
93.38
103.37
113.08
120.68
124.83
124.90
121.01
113.80
104.21
93.16
81.41
69.49
57.76
46.44
35.91
26.78
20.00
16.64
17.47
22.42
30.34
39.18
46.59
50.69
50.62
46.70
40.08
32.29
24.67
18.14
13.12
9.67
7.56
6.35
5.45
4.27
2.40
-0.13
-2.82
-4.88
-5.63
-5.05
-4.13
-4.69
-8.91
-18.40
-33.51
-52.85
-73.49
-91.57
-103.37
-106.28
-99.61
-84.65
-64.14
-41.24
-18.41
3.32
24.12
44.65
65.08
84.47
100.91
112.28
117.07
114.88
106.28
92.36
74.19
52.70
28.78
3.61
-21.25
-44.04
-63.21
-77.87
-88.03
-94.71
-99.69
-105.09
-112.98
-124.72
-140.44
-158.70
-176.53
-190.00
-195.44
-190.74
-176.27
-154.86
-130.79
-108.18
-89.53
-75.30
-64.28
-54.63
-44.83
-34.07
-22.17
-9.22
4.62
19.08
33.65
47.60
60.22
71.15
80.46
88.60
96.10
103.27
110.23
116.99
123.55
129.95
135.96
140.95
143.73
142.74
136.53
124.24
105.94
82.73
56.39
28.95
2.21
-22.42
-43.97
-61.66
-74.82
-82.92
-85.76
-83.84
-78.30
-70.70
-62.45
-54.39
-46.59
-38.66
-30.20
-21.28
-12.64
-5.42
-0.68
1.21
0.72
-0.88
-2.10
-1.70
0.89
5.38
10.86
16.20
20.50
23.40
25.04
25.89
26.35
26.64
26.66
26.16
24.90
22.75
19.78
16.25
12.68
9.80
8.37
8.97
11.70
16.06
21.04
25.39
28.01
28.20
25.73
20.79
13.90
5.87
-2.30
-9.60
-15.23
-18.84
-20.59
-21.05
-20.90
-20.62
-20.35
-19.98
-19.36
-18.44
-17.40
-16.58
-16.44
-17.41
-19.82
-23.76
-28.88
-34.24
-38.30
