1627482206.00
64.000000
-0.00
-0.00
-0.00
-0.00
-0.00
-0.00
-0.00
-0.00
-0.00
-0.00
0.00
0.01
0.01
-0.00
-0.03
-0.05
-0.05
0.00
0.13
0.36
0.66
1.01
1.37
1.72
2.06
2.40
2.79
3.24
3.80
4.42
5.06
5.66
6.20
6.68
7.15
7.68
8.31
9.14
10.09
11.04
11.88
12.56
13.14
13.76
14.65
15.96
17.91
20.32
22.90
25.38
27.58
29.57
31.68
34.32
37.81
42.54
48.15
54.10
59.83
64.97
69.58
74.14
79.34
85.71
93.76
103.00
112.62
121.73
129.77
136.75
143.30
150.75
157.77
166.64
177.95
191.79
206.97
220.57
228.25
225.36
208.53
176.87
132.76
80.05
23.07
-34.94
-92.44
-149.16
-205.23
-260.37
-313.74
-363.87
-409.83
-450.91
-486.50
-515.74
-537.23
-549.22
-549.96
-538.37
-514.21
-478.67
-433.88
-382.45
-327.02
-269.84
-212.63
-156.66
-102.95
-52.37
-5.90
35.58
71.43
101.35
125.50
144.38
158.69
169.15
176.37
180.75
182.57
182.07
179.51
175.23
169.65
163.18
156.15
148.81
141.30
133.69
126.02
118.33
110.69
103.16
95.80
88.68
81.83
75.25
68.95
62.95
57.25
51.86
46.78
42.03
37.59
33.45
29.61
26.07
22.81
19.83
17.11
14.67
12.48
10.54
8.83
7.35
6.07
4.97
4.05
3.27
2.62
2.09
1.65
1.30
1.01
0.79
0.61
0.47
0.37
0.29
0.23
0.19
0.16
0.15
0.15
0.15
0.17
0.19
0.22
0.25
0.29
0.34
0.38
0.42
0.48
0.52
0.57
0.63
0.68
0.74
0.81
0.88
0.95
1.03
1.12
1.23
1.34
1.47
1.61
1.77
1.95
2.14
2.37
2.61
2.88
3.17
3.50
3.86
4.26
4.68
5.15
5.66
6.20
6.79
7.42
8.09
8.81
9.57
10.39
11.25
12.16
13.11
14.12
15.18
16.32
17.51
18.78
20.09
21.44
22.76
23.99
25.04
25.78
26.10
25.87
24.98
23.37
21.02
17.95
14.23
10.01
5.48
0.84
-3.65
-7.80
-11.44
-14.44
-16.76
-18.39
-19.35
-19.71
-19.54
-18.92
-17.90
-16.60
-15.13
-13.59
-12.04
-10.50
-8.99
-7.48
-5.92
-4.26
-2.50
-0.66
1.17
2.96
4.74
6.47
8.22
10.13
12.27
14.62
17.05
19.35
21.39
23.24
24.81
26.34
28.13
30.43
33.20
36.14
38.82
40.87
42.33
43.07
43.50
44.19
45.57
47.54
49.58
50.86
50.68
48.92
45.38
40.51
35.00
29.24
22.91
14.90
3.31
-14.63
-36.99
-63.87
-95.05
-129.17
-163.27
-192.89
-213.14
-220.36
-213.57
-194.92
-169.60
-143.06
-119.21
-99.58
-83.66
-70.05
-57.74
-46.44
-36.26
-27.65
-20.19
-12.95
-5.12
3.44
12.04
19.48
24.70
27.33
27.53
26.20
24.48
23.26
22.89
23.13
23.38
23.02
21.73
19.45
16.50
13.35
10.42
7.93
5.91
4.39
3.51
3.58
4.91
7.68
11.83
16.98
22.53
27.83
32.31
35.58
37.39
37.68
36.57
34.36
31.53
28.64
26.21
24.60
23.83
23.69
23.73
23.47
22.59
21.06
19.08
17.00
15.07
13.27
11.33
8.93
5.87
2.27
-1.43
-4.72
-7.25
-9.04
-10.40
-11.80
-13.63
-16.08
-19.10
-22.49
-25.92
-29.03
-31.36
-32.44
-31.86
-29.41
-25.18
-19.57
-13.17
-6.70
-0.77
4.20
7.98
10.57
12.09
12.74
12.79
12.51
12.19
12.08
12.37
13.10
14.19
15.42
16.52
17.26
17.46
17.10
16.26
15.08
13.70
12.19
10.53
8.65
6.45
3.90
1.11
-1.72
-4.35
-6.66
-8.63
-10.49
-12.52
-15.02
-18.13
-21.77
-25.55
-28.84
-30.89
-31.05
-28.93
-24.61
-18.56
-11.62
-4.70
1.42
6.24
9.57
11.48
12.23
12.22
11.98
12.10
13.19
15.65
19.57
24.57
29.89
34.50
37.52
38.43
37.28
34.54
30.87
26.85
22.82
18.86
14.98
11.23
7.79
4.85
2.61
1.07
0.12
-0.50
-1.08
-1.99
-3.57
-6.13
-9.76
-14.27
-19.14
-23.62
-26.86
-28.24
-27.42
-24.46
-19.71
-13.77
-7.28
-0.84
5.05
10.01
13.84
16.47
17.96
18.56
18.65
18.63
18.92
19.69
20.89
22.24
23.37
24.03
24.13
23.72
22.92
21.65
19.74
17.02
13.52
9.49
5.43
1.74
-1.38
-4.15
-6.94
-10.06
-13.49
-16.90
-19.84
-22.04
-23.67
-25.24
-27.36
-30.31
-33.78
-36.96
-38.77
-38.38
-35.51
-30.58
-24.43
-18.02
-12.10
-7.04
-2.93
0.30
2.72
4.33
5.15
5.29
5.00
4.65
4.62
5.20
6.50
8.40
10.58
12.63
14.14
14.85
14.70
13.81
12.44
10.85
9.23
7.65
6.15
4.71
3.39
2.25
1.37
0.73
0.18
-0.54
-1.74
-3.67
-6.39
-9.70
-13.10
-15.92
-17.51
-17.44
-15.63
-12.43
-8.45
-4.40
-0.87
1.83
3.65
4.68
5.10
5.03
4.64
4.15
3.92
4.33
5.68
8.01
11.04
14.22
16.97
18.87
19.76
19.80
19.25
18.32
17.11
15.52
13.43
10.84
7.87
4.80
1.92
-0.63
-2.88
-5.02
-7.31
-9.92
-12.88
-16.04
-19.08
-21.57
-23.04
-23.10
-21.54
-18.40
-13.97
-8.74
-3.27
1.94
6.50
10.18
12.94
14.81
15.92
16.46
16.58
16.44
16.14
15.78
15.50
15.47
15.86
16.74
18.02
19.36
20.28
20.32
19.22
16.99
14.00
10.74
7.68
5.11
3.02
1.21
-0.64
-2.71
-5.03
-7.48
-9.94
-12.40
-15.02
-17.98
-21.32
-24.69
-27.36
-28.38
-27.00
-23.01
-16.98
-10.09
-3.77
0.76
2.92
2.80
1.08
-1.35
-3.74
-5.60
-6.78
-7.29
-7.24
-6.79
-6.06
-5.19
-4.22
-3.03
-1.41
0.78
3.42
5.84
6.98
5.62
1.06
-6.47
-15.54
-23.94
-29.26
-29.84
-25.22
-16.24
-4.67
7.37
18.03
25.97
30.52
31.46
28.90
23.08
14.34
3.17
-9.67
-23.04
-35.36
-44.81
-49.72
-49.04
-42.79
-32.14
-19.07
-5.81
5.81
14.75
20.86
24.66
27.01
28.74
30.48
32.69
35.67
39.57
44.31
49.43
54.06
57.13
57.64
55.11
49.87
42.93
35.75
29.80
26.13
25.07
26.11
28.02
29.30
28.58
25.15
19.18
11.55
3.60
-3.36
-8.20
-10.07
-8.45
-3.35
4.24
12.10
16.96
15.44
5.24
-13.74
-39.10
-66.71
-91.89
-110.82
-121.26
-122.70
-115.94
-102.60
-84.72
-64.55
-44.44
-26.64
-12.90
-4.19
-0.48
-0.84
-3.81
-7.84
-11.59
-14.00
-14.21
-11.57
-5.74
2.85
12.74
21.52
26.48
25.72
19.13
8.71
-2.10
-9.88
-12.73
-11.07
-7.18
-3.92
-3.21
-5.17
-8.24
-10.16
-9.23
-5.14
1.07
7.50
12.33
14.59
14.35
12.66
10.94
10.33
11.27
13.20
14.91
15.19
13.59
10.82
8.59
8.88
12.90
20.45
29.75
38.05
42.44
40.76
32.21
17.84
0.47
-15.60
-25.61
-25.71
-14.52
5.69
29.15
48.12
55.65
48.43
28.38
2.06
-21.86
-36.07
-37.36
-27.32
-10.94
6.03
19.67
28.90
34.98
39.84
44.55
48.78
51.34
51.17
48.13
42.98
36.83
30.48
24.20
17.99
12.06
7.08
4.00
3.40
5.00
7.31
7.99
4.51
-4.96
-20.85
-41.87
-65.25
-87.38
-104.78
-114.94
-116.95
-111.57
-100.81
-87.17
-72.91
-59.62
-48.01
-38.04
-29.13
-20.51
-11.47
-1.69
8.64
18.94
28.39
36.24
41.97
45.44
46.84
46.61
45.41
43.93
42.72
42.00
41.51
40.61
38.49
34.53
28.58
21.02
12.62
4.23
-3.47
-10.04
-15.27
-19.19
-22.03
-24.23
-26.32
-28.69
-31.36
-33.87
-35.45
-35.30
-33.00
-28.63
-22.75
-16.11
-9.39
-3.11
2.42
6.93
10.16
11.93
12.25
11.37
9.76
7.94
6.37
5.33
4.88
4.97
5.43
6.06
6.62
6.88
6.57
5.53
3.72
1.22
-1.78
-5.09
-8.57
-12.13
-15.70
-19.22
-22.61
-25.86
-29.05
-32.27
-35.54
-38.68
-41.24
-42.55
-42.02
-39.32
-34.51
-28.03
-20.58
-12.85
-5.46
1.20
6.92
11.70
15.68
19.08
22.16
25.09
27.94
30.60
32.90
34.61
35.62
36.02
36.12
36.41
37.29
38.90
40.84
42.30
42.22
39.71
34.44
26.83
17.92
9.14
1.82
-3.21
-5.88
-7.00
-7.96
-10.38
-15.44
-23.42
-33.34
-43.11
-50.09
-51.96
-47.59
-37.39
-23.24
-7.79
6.34
17.33
24.44
27.93
28.73
28.01
26.84
26.05
26.13
27.28
29.39
32.10
34.84
36.87
37.33
35.39
30.56
22.97
13.44
3.36
-5.79
-12.85
-17.33
-19.32
-19.21
-17.41
-14.24
-10.07
-5.49
-1.34
1.47
2.24
0.82
-2.32
-6.36
-10.26
-13.19
-14.59
-14.32
-12.57
-9.72
-6.29
-2.73
0.67
3.81
6.74
9.68
12.84
16.41
20.36
24.49
28.37
31.40
33.08
32.98
30.92
26.96
21.39
14.73
7.75
1.36
-3.49
-6.01
-5.84
-3.21
1.04
5.58
8.91
9.77
7.56
2.46
-4.56
-12.10
-18.79
-23.73
-26.65
-27.89
-28.11
-28.06
-28.35
-29.31
-30.99
-33.03
-34.77
-35.39
-34.18
-30.85
-25.63
-19.22
-12.52
-6.28
-0.92
3.49
7.11
10.14
12.70
14.83
16.49
17.71
18.56
19.15
19.63
20.06
20.43
20.63
20.50
19.94
19.02
17.84
16.60
15.40
14.19
12.81
11.05
8.82
6.20
3.41
0.68
-1.84
-4.18
-6.52
-9.12
-12.20
-15.83
-19.97
-24.30
-28.35
-31.49
-33.01
-32.38
-29.43
-24.44
-18.06
-11.17
-4.58
1.21
6.01
9.91
13.02
15.44
17.12
17.99
18.06
17.51
16.64
15.77
15.15
14.81
14.63
14.41
14.00
13.35
12.57
11.80
11.14
10.55
9.85
8.80
7.23
5.09
2.53
-0.20
-2.81
-5.14
-7.15
-8.92
-10.65
-12.55
-14.76
-17.30
-20.06
-22.70
-24.77
-25.76
-25.27
-23.14
-19.52
-14.80
-9.56
-4.31
0.56
4.83
8.36
11.07
12.84
13.59
13.39
12.46
11.22
10.10
9.47
9.42
9.82
10.37
10.80
10.95
10.85
10.61
10.37
10.13
9.82
9.27
8.33
6.97
5.27
3.41
1.58
-0.09
-1.57
-2.94
-4.40
-6.15
-8.33
-10.94
-13.75
-16.28
-17.91
-18.05
-16.37
-12.91
-8.18
-2.91
2.07
6.20
9.25
11.26
12.45
13.01
13.00
12.47
11.46
10.18
8.94
8.06
7.71
7.83
8.14
8.32
8.17
7.69
7.04
6.40
5.85
5.25
4.41
3.15
1.48
-0.47
-2.45
-4.28
-5.87
-7.31
-8.76
-10.36
-12.20
-14.28
-16.50
-18.68
-20.50
-21.58
-21.51
-20.00
-17.02
-12.85
-8.06
-3.27
0.98
4.37
6.84
8.50
9.51
9.96
9.90
9.37
8.51
7.54
6.75
6.36
6.43
6.84
7.35
7.70
7.72
7.43
6.88
6.17
5.32
4.27
2.96
1.41
-0.26
-1.89
-3.34
-4.61
-5.78
-7.02
-8.52
-10.37
-12.56
-14.96
-17.28
-19.11
-19.98
-19.49
-17.49
-14.13
-9.86
-5.29
-0.97
2.74
5.74
8.05
9.70
10.69
10.94
10.45
9.31
7.81
6.29
5.07
4.32
4.02
4.00
4.08
4.10
3.98
3.72
3.35
2.91
2.37
1.71
0.85
-0.24
-1.53
-2.95
-4.35
-5.60
-6.63
-7.55
-8.54
-9.86
-11.66
-13.92
-16.30
-18.29
-19.30
-18.87
-16.86
-13.50
-9.34
-5.00
-0.95
2.54
5.41
7.65
9.16
9.75
9.28
7.82
5.77
3.71
2.21
1.59
1.81
2.58
3.53
4.35
4.92
5.22
5.26
5.04
4.56
3.83
2.91
1.89
0.84
-0.24
-1.33
-2.47
-3.63
-4.81
-6.06
-7.49
-9.20
-11.25
-13.47
-15.48
-16.76
-16.81
-15.35
-12.44
-8.51
-4.13
0.06
3.60
6.30
8.09
9.03
9.18
8.59
7.37
5.74
4.02
2.56
1.61
1.22
1.18
1.25
1.20
1.00
0.79
0.74
0.93
1.23
1.40
1.16
0.38
-0.92
-2.51
-4.15
-5.64
-6.87
-7.87
-8.74
-9.69
-10.92
-12.59
-14.70
-17.01
-19.04
-20.24
-20.13
-18.52
-15.57
-11.74
-7.61
-3.68
-0.29
2.37
4.27
5.36
5.67
5.28
4.40
3.36
2.49
2.02
2.06
2.49
3.13
3.79
4.39
4.91
5.35
5.67
5.71
5.28
4.29
2.78
0.96
-0.93
-2.71
-4.35
-5.89
-7.49
-9.21
-11.07
-13.02
-14.96
-16.74
-18.08
-18.65
-18.07
-16.11
-12.84
-8.61
-4.04
0.26
3.81
6.43
8.10
8.95
9.11
8.70
7.88
6.84
5.79
4.93
4.40
4.25
4.43
4.82
5.28
5.67
5.86
5.75
5.32
4.60
3.64
2.50
1.20
-0.26
-1.83
-3.46
-5.09
-6.74
-8.54
-10.72
-13.47
-16.71
-20.02
-22.69
-23.93
-23.17
-20.34
-15.89
-10.59
-5.23
-0.40
3.62
6.77
9.06
10.46
10.91
10.40
9.11
7.41
5.78
4.69
4.36
4.76
5.63
6.61
7.42
7.90
8.05
7.90
7.45
6.65
5.42
3.69
1.55
-0.86
-3.30
-5.58
-7.65
-9.59
-11.60
-13.94
-16.76
-20.00
-23.33
-26.15
-27.77
-27.59
-25.36
-21.26
-15.86
-9.89
-4.04
1.23
5.72
9.35
12.12
14.00
14.99
15.23
14.96
14.56
14.33
14.47
14.95
15.63
16.31
16.85
17.19
17.32
17.21
16.72
15.69
14.01
11.70
8.93
5.97
3.10
0.43
-2.03
-4.39
-6.81
-9.42
-12.29
-15.43
-18.67
-21.72
-24.07
-25.10
-24.30
-21.38
-16.53
-10.35
-3.71
2.57
7.91
12.10
15.21
17.40
18.83
19.61
19.94
20.07
20.34
21.01
22.11
23.52
24.93
26.08
26.82
27.11
26.96
26.38
25.37
23.92
22.12
20.07
17.92
15.71
13.45
11.08
8.56
5.90
3.12
0.25
-2.74
-5.87
-9.10
-12.21
-14.84
-16.44
-16.48
-14.63
-10.95
-5.90
-0.26
5.16
9.78
13.32
15.75
17.16
17.56
16.94
15.40
13.30
11.32
10.16
10.20
11.33
12.93
14.14
14.34
13.40
11.67
9.70
7.90
6.28
4.60
2.53
-0.06
-3.06
-6.20
-9.23
-12.05
-14.74
-17.47
-20.39
-23.65
-27.31
-31.41
-35.82
-40.21
-43.98
-46.38
-46.73
-44.64
-40.21
-33.97
-26.75
-19.37
-12.47
-6.39
-1.29
2.78
5.79
7.71
8.63
8.81
8.70
8.79
9.47
10.85
12.70
14.60
16.07
16.84
16.91
16.51
15.94
15.39
14.86
14.15
13.01
11.32
9.13
6.69
4.26
2.07
0.14
-1.66
-3.53
-5.61
-7.99
-10.68
-13.68
-16.93
-20.25
-23.19
-25.13
-25.36
-23.39
-19.17
-13.14
-6.12
1.03
7.63
13.34
18.01
21.61
24.05
25.29
25.36
24.54
23.30
22.21
21.67
21.84
22.57
23.48
24.20
24.46
24.21
23.54
22.60
21.51
20.25
18.74
16.83
14.45
11.63
8.55
5.44
2.52
-0.10
-2.49
-4.86
-7.46
-10.53
-14.12
-18.15
-22.35
-26.29
-29.52
-31.50
-31.80
-30.14
-26.50
-21.16
-14.70
-7.82
-1.25
4.46
8.93
12.00
13.67
14.06
13.41
12.11
10.64
9.47
8.99
9.29
10.24
11.48
12.62
13.39
13.69
13.60
13.21
12.61
11.73
10.44
8.63
6.26
3.40
0.26
-2.94
-5.98
-8.71
-11.11
-13.25
-15.31
-17.55
-20.28
-23.73
-27.95
-32.60
-36.98
-40.14
-41.16
-39.47
-35.08
-28.52
-20.73
-12.67
-5.03
1.83
7.82
12.98
17.25
20.51
22.66
23.78
24.15
24.26
24.52
25.18
26.21
27.30
28.08
28.24
27.68
26.49
24.89
23.09
21.18
19.12
16.72
13.79
10.19
5.97
1.36
-3.23
-7.45
-11.10
-14.25
-17.21
-20.35
-24.00
-28.35
-33.35
-38.81
-44.39
-49.54
-53.62
-55.96
-56.01
-53.56
-48.85
-42.48
-35.29
-28.09
-21.43
-15.58
-10.57
-6.35
-2.87
-0.18
1.70
2.83
3.44
3.94
4.70
5.98
7.71
9.58
11.19
12.25
12.75
12.90
13.02
13.31
13.77
14.18
14.25
13.75
12.62
10.95
8.90
6.67
4.37
2.08
-0.17
-2.40
-4.63
-6.99
-9.63
-12.75
-16.53
-20.97
-25.76
-30.26
-33.61
-34.95
-33.74
-29.97
-24.19
-17.25
-10.03
-3.15
3.11
8.69
13.60
17.76
21.03
23.33
24.67
25.26
25.39
25.38
25.48
25.80
26.28
26.79
27.11
27.05
26.52
25.54
24.23
22.74
21.16
19.48
17.64
15.60
13.37
11.03
8.75
6.64
4.78
3.13
1.56
-0.12
-2.11
-4.55
-7.51
-10.95
-14.77
-18.88
-23.13
-27.29
-30.93
-33.45
-34.22
-32.80
-29.13
-23.69
-17.27
-10.78
-4.84
0.28
4.62
8.33
11.45
13.87
15.43
16.10
16.10
15.84
15.75
16.12
16.97
18.09
19.18
19.94
20.21
20.00
19.39
18.52
17.48
16.32
15.02
13.53
11.78
9.81
7.67
5.51
3.45
1.59
-0.03
-1.49
-2.85
-4.23
-5.68
-7.26
-9.05
-11.17
-13.76
-16.85
-20.27
-23.58
-26.10
-27.14
-26.20
-23.19
-18.46
-12.66
-6.59
-0.92
3.92
7.73
10.49
12.21
12.95
12.82
12.08
11.12
10.45
10.46
11.35
12.93
14.75
16.25
17.04
17.03
16.42
15.57
14.81
14.29
13.92
13.49
12.73
11.45
9.62
7.34
4.81
2.30
0.01
-1.96
-3.61
-5.11
-6.66
-8.47
-10.71
-13.45
-16.61
-19.92
-22.95
-25.13
-25.87
-24.74
-21.64
-16.80
-10.80
-4.37
1.81
7.27
11.78
15.30
17.88
19.56
20.32
20.20
19.31
17.94
16.53
15.51
15.16
15.47
16.14
16.71
16.72
15.93
14.35
12.20
9.76
7.22
4.64
2.02
-0.59
-3.07
-5.25
-6.99
-8.29
-9.34
-10.45
-11.92
-13.99
-16.73
-20.07
-23.84
-27.81
-31.67
-35.07
-37.50
-38.47
-37.58
-34.65
-29.90
-23.83
-17.21
-10.76
-5.00
-0.16
3.78
6.90
9.26
10.83
11.59
11.61
11.19
10.79
10.83
11.53
12.80
14.26
15.45
16.02
15.90
15.27
14.41
13.56
12.70
11.68
10.26
8.28
5.77
2.96
0.16
-2.31
-4.32
-5.90
-7.25
-8.63
-10.29
-12.41
-15.06
-18.23
-21.75
-25.26
-28.22
-29.94
-29.79
-27.40
-22.87
-16.75
-9.87
-3.10
2.94
7.90
11.67
14.25
15.64
15.92
15.28
14.11
12.89
12.06
11.84
12.18
12.86
13.56
14.06
14.25
14.13
13.75
13.13
12.27
11.11
9.61
7.70
5.42
2.86
0.25
-2.18
-4.24
-5.89
-7.25
-8.54
-10.02
-11.86
-14.22
-17.07
-20.24
-23.33
-25.75
-26.83
-26.12
-23.47
-19.22
-13.99
-8.48
-3.23
1.51
5.69
9.31
12.27
14.39
15.54
15.75
15.37
14.90
14.81
15.36
16.45
17.74
18.76
19.22
19.03
18.35
17.45
16.50
15.50
14.31
12.65
10.42
7.66
4.68
1.79
-0.76
-2.91
-4.83
-6.76
-8.92
-11.42
-14.29
-17.46
-20.79
-23.98
-26.55
-27.88
-27.42
-24.91
-20.60
-15.11
-9.23
-3.64
1.25
5.28
8.39
10.53
11.62
11.69
10.93
9.75
8.65
7.99
7.90
8.26
8.80
9.22
9.34
9.14
8.68
8.06
7.35
6.52
5.52
4.22
2.59
0.65
-1.49
-3.64
-5.69
-7.54
-9.21
-10.83
-12.62
-14.79
-17.49
-20.74
-24.26
-27.57
-29.96
-30.77
-29.51
-26.11
-20.90
-14.51
-7.68
-1.06
4.87
9.81
13.58
16.08
17.30
17.38
16.65
15.58
14.65
14.16
14.19
14.58
15.02
15.25
15.14
14.70
14.06
13.33
12.51
11.53
10.24
8.55
6.41
3.92
1.29
-1.26
-3.54
-5.51
-7.27
-9.09
-11.26
-14.03
-17.44
-21.30
-25.18
-28.45
-30.44
-30.54
-28.40
-24.08
-18.06
-11.12
-4.13
2.23
7.58
11.86
15.19
17.69
19.38
20.21
20.21
19.61
18.81
18.28
18.31
18.93
19.86
20.67
21.00
20.71
19.88
18.69
17.28
15.61
13.51
10.80
7.46
3.71
-0.11
-3.62
-6.60
-9.10
-11.29
-13.51
-16.03
-19.04
-22.49
-26.10
-29.36
-31.64
-32.28
-30.88
-27.40
-22.20
-15.96
-9.46
-3.32
2.03
6.40
9.74
12.05
13.30
13.54
12.92
11.76
10.52
9.61
9.32
9.66
10.39
11.16
11.64
11.67
11.29
10.65
9.86
8.98
7.88
6.44
4.56
2.31
-0.14
-2.50
-4.58
-6.28
-7.62
-8.73
-9.82
-11.08
-12.73
-14.90
-17.52
-20.32
-22.72
-24.04
-23.65
-21.23
-16.90
-11.19
-4.84
1.41
6.95
11.42
14.62
16.48
17.09
16.61
15.39
13.87
12.51
11.68
11.54
12.07
13.01
14.09
15.00
15.55
15.63
15.20
14.25
12.73
10.69
8.18
5.40
2.57
-0.08
-2.44
-4.50
-6.35
-8.17
-10.12
-12.38
-15.07
-18.21
-21.64
-24.92
-27.38
-28.26
-27.00
-23.36
-17.66
-10.61
-3.09
3.99
10.06
14.73
17.95
19.79
20.40
20.02
18.91
17.43
16.00
14.94
14.46
14.49
14.78
14.97
14.76
14.07
12.96
11.61
10.14
8.50
6.51
4.01
0.96
-2.48
-5.97
-9.23
-12.09
-14.65
-17.19
-20.03
-23.42
-27.34
-31.46
-35.18
-37.76
-38.46
-36.81
-32.70
-26.51
-18.97
-10.91
-3.13
3.85
9.76
14.50
18.05
20.39
21.56
21.75
21.32
20.70
20.24
20.10
20.22
20.35
20.27
19.88
19.20
18.35
17.32
16.01
14.17
11.56
8.12
3.97
-0.51
-4.89
-8.76
-11.95
-14.55
-16.85
-19.28
-22.21
-25.83
-30.05
-34.40
-38.12
-40.33
-40.24
-37.40
-31.96
-24.57
-16.24
-8.03
-0.74
5.25
9.91
13.40
15.90
17.47
18.17
18.16
17.76
17.38
17.38
17.88
18.70
19.52
19.97
19.94
19.45
18.68
17.74
16.57
15.02
12.89
10.18
7.05
3.85
0.90
-1.59
-3.65
-5.50
-7.46
-9.83
-12.78
-16.33
-20.25
-24.14
-27.43
-29.45
-29.66
-27.72
-23.67
-17.89
-11.04
-3.90
2.84
8.61
13.10
16.16
17.83
18.23
17.61
16.30
14.72
13.35
12.58
12.61
13.39
14.62
15.92
16.96
17.61
17.88
17.83
17.42
16.47
14.74
12.17
8.91
5.40
2.13
-0.60
-2.85
-4.91
-7.24
-10.19
-13.91
-18.29
-23.02
-27.56
-31.15
-32.93
-32.03
-27.98
-20.93
-11.77
-1.87
7.39
15.05
20.79
24.76
27.34
28.82
29.31
28.91
27.78
26.24
24.64
23.24
22.05
20.91
19.60
17.98
16.03
13.81
11.36
8.66
5.69
2.43
-1.07
-4.68
-8.29
-11.84
-15.27
-18.55
-21.65
-24.55
-27.25
-29.85
-32.45
-35.08
-37.50
-39.17
-39.37
-37.43
-33.08
-26.61
-18.83
-10.79
-3.44
2.64
7.29
10.66
12.90
14.13
14.37
13.67
12.23
10.47
8.88
7.89
7.73
8.26
9.19
10.08
10.59
10.56
10.01
9.00
7.59
5.81
3.65
1.18
-1.39
-3.74
-5.56
-6.67
-7.16
-7.43
-8.00
-9.46
-12.19
-16.26
-21.33
-26.61
-31.07
-33.55
-33.14
-29.39
-22.51
-13.35
-3.16
6.67
15.02
21.25
25.22
27.20
27.68
27.14
26.04
24.79
23.78
23.33
23.62
24.58
25.80
26.72
26.79
25.70
23.55
20.73
17.77
15.06
12.68
10.43
7.88
4.68
0.66
-4.10
-9.30
-14.57
-19.62
-24.34
-28.82
-33.29
-37.98
-43.01
-48.24
-53.25
-57.35
-59.68
-59.41
-55.94
-49.12
-39.34
-27.47
-14.72
-2.39
8.39
16.83
22.52
25.49
26.12
25.13
23.54
22.48
22.96
25.65
30.56
37.05
44.04
50.20
54.39
55.90
54.56
50.81
45.53
39.93
35.11
31.82
30.12
29.30
28.22
25.69
20.97
14.06
5.55
-3.70
-12.80
-21.11
-28.13
-33.42
-36.56
-37.28
-35.54
-31.66
-26.18
-19.72
-12.84
-5.98
0.32
5.52
9.07
10.70
10.49
8.94
6.65
4.12
1.62
-0.74
-2.72
-3.90
-3.83
-2.32
0.21
2.82
4.37
4.09
1.99
-1.12
-3.94
-5.36
-4.95
-3.09
-0.84
0.56
0.04
-3.00
-8.63
-16.51
-25.87
-35.65
-44.54
-51.15
-54.27
-53.14
-47.73
-38.73
-27.43
-15.36
-3.98
5.60
12.77
17.42
19.84
20.61
20.37
19.71
19.10
18.80
18.88
19.29
19.89
20.48
20.80
20.59
19.62
17.74
14.93
11.34
7.30
3.20
-0.58
-3.76
-6.20
-7.93
-9.08
-9.93
-10.84
-12.25
-14.50
-17.74
-21.75
-25.82
-28.96
-30.08
-28.49
-24.09
-17.51
-9.88
-2.48
3.67
8.03
10.55
11.49
11.25
10.17
8.55
6.66
4.85
3.50
2.94
3.32
4.56
6.33
8.24
9.96
11.25
12.04
12.34
12.20
11.65
10.73
9.49
8.00
6.33
4.48
2.38
-0.16
-3.41
-7.62
-12.95
-19.29
-26.15
-32.61
-37.43
-39.39
-37.63
-31.98
-23.04
-12.07
-0.58
10.08
18.97
25.66
30.16
32.65
33.44
32.81
31.12
28.78
26.29
24.12
22.61
21.90
21.90
22.39
23.05
23.59
23.75
23.37
22.35
20.70
18.53
16.03
13.43
10.93
8.72
6.89
5.43
4.16
2.73
0.66
-2.54
-7.19
-13.19
-19.87
-26.16
-30.82
-32.80
-31.64
-27.52
-21.25
-13.88
-6.50
0.04
5.23
8.79
10.64
10.85
9.65
7.44
4.79
2.27
0.41
-0.48
-0.31
0.78
2.55
4.70
6.94
8.96
10.44
11.08
10.72
9.33
7.10
4.34
1.34
-1.73
-4.79
-7.87
-10.94
-13.99
-16.98
-19.91
-22.76
-25.39
-27.42
-28.29
-27.37
-24.31
-19.21
-12.64
-5.45
1.51
7.62
12.56
16.25
18.69
19.86
19.84
18.78
17.04
15.09
13.37
12.19
11.67
11.71
12.15
12.81
13.54
14.22
14.73
14.92
14.63
13.75
12.24
10.16
7.67
4.96
2.23
-0.40
-2.92
-5.40
-8.03
-10.97
-14.34
-18.05
-21.75
-24.81
-26.54
-26.33
-23.89
-19.43
-13.54
-7.09
-0.95
4.24
8.15
10.68
11.93
12.04
11.17
9.54
7.48
5.37
3.61
2.49
2.13
2.42
3.15
4.05
4.84
5.26
5.13
4.33
2.85
0.81
-1.59
-4.13
-6.59
-8.84
-10.85
-12.59
-14.10
-15.42
-16.66
-17.95
-19.44
-21.16
-22.93
-24.33
-24.81
-23.84
-21.17
-16.98
-11.85
-6.55
-1.84
1.81
4.23
5.52
5.81
5.24
3.90
2.00
-0.09
-1.88
-2.90
-2.89
-1.93
-0.40
1.20
2.43
3.07
3.12
2.75
2.16
1.53
0.96
0.48
0.01
-0.56
-1.35
-2.43
-3.81
-5.45
-7.27
-9.17
-10.99
-12.42
-13.01
-12.27
-9.84
-5.75
-0.42
5.32
10.59
14.68
17.33
18.64
18.94
18.52
17.54
16.00
13.89
11.29
8.49
5.89
3.92
2.92
2.98
4.00
5.63
7.41
8.85
9.48
9.04
7.49
5.14
2.50
0.07
-1.89
-3.57
-5.57
-8.70
-13.62
-20.54
-29.06
-38.18
-46.48
-52.47
-54.90
-53.05
-46.96
-37.43
-25.87
-13.96
-3.28
5.07
10.54
13.11
13.08
10.96
7.32
2.79
-1.95
-6.25
-9.58
-11.67
-12.54
-12.52
-12.05
-11.60
-11.47
-11.77
-12.45
-13.35
-14.27
-15.07
-15.69
-16.16
-16.56
-16.94
-17.39
-17.97
-18.71
-19.61
-20.55
-21.24
-21.27
-20.20
-17.72
-13.84
-8.84
-3.18
2.64
8.22
13.25
17.42
20.43
22.00
22.06
20.85
18.91
16.90
15.41
14.74
14.88
15.64
16.79
18.16
19.65
21.10
22.25
22.76
22.32
20.84
18.51
15.72
12.91
10.35
8.10
6.00
3.83
1.41
-1.27
-4.06
-6.65
-8.59
-9.39
-8.61
-6.10
-2.05
2.91
7.96
12.33
15.53
17.43
18.21
18.09
17.19
15.52
13.04
9.78
5.92
1.83
-2.10
-5.49
-8.10
-9.77
-10.42
-10.01
-8.53
-6.03
-2.68
1.17
5.03
8.30
10.35
10.72
9.20
5.98
1.67
-2.82
-6.56
-8.84
-9.42
-8.52
-6.66
-4.42
-2.25
-0.44
0.85
1.43
1.09
-0.30
-2.62
-5.45
-8.14
-10.00
-10.58
-9.76
-7.84
-5.35
-2.91
-1.02
0.07
0.37
0.08
-0.55
-1.31
-2.18
-3.23
-4.56
-6.14
-7.74
-8.92
-9.28
-8.57
-6.93
-4.85
-2.91
-1.54
-0.83
-0.50
-0.08
0.86
2.49
4.74
7.42
10.34
13.40
16.51
19.49
22.02
23.74
24.32
23.68
21.92
19.33
16.17
12.65
8.91
5.11
1.51
-1.55
-3.66
-4.57
-4.22
-2.82
-0.77
1.41
3.27
4.51
4.97
4.72
3.92
2.75
1.38
-0.14
-1.90
-4.06
-6.83
-10.40
-14.79
-19.87
-25.26
-30.35
-34.35
-36.41
-35.84
-32.32
-26.12
-18.11
-9.53
-1.68
4.48
8.59
10.86
11.85
12.14
12.11
11.92
11.58
11.15
10.82
10.79
11.18
11.91
12.64
13.01
12.73
11.72
10.08
7.98
5.54
2.83
-0.13
-3.25
-6.32
-9.12
-11.46
-13.32
-14.85
-16.33
-18.08
-20.30
-22.92
-25.57
-27.61
-28.30
-27.08
-23.79
-18.75
-12.69
-6.46
-0.78
3.94
7.64
10.43
12.45
13.78
14.39
14.32
13.74
12.98
12.41
12.35
12.91
13.92
14.98
15.61
15.43
14.32
12.43
10.06
7.56
5.11
2.74
0.39
-2.01
-4.45
-6.89
-9.35
-11.94
-14.87
-18.25
-22.00
-25.69
-28.59
-29.83
-28.76
-25.09
-19.09
-11.51
-3.34
4.45
11.13
16.36
20.14
22.66
24.18
24.93
25.06
24.72
24.06
23.23
22.41
21.68
21.08
20.53
19.93
19.16
18.17
16.94
15.46
13.73
11.75
9.53
7.12
4.62
2.15
-0.24
-2.55
-4.94
-7.62
-10.79
-14.53
-18.68
-22.79
-26.20
-28.15
-28.02
-25.51
-20.82
-14.57
-7.65
-0.90
5.06
9.95
13.77
16.65
18.70
19.99
20.58
20.58
20.25
19.89
19.76
19.97
20.44
20.95
21.24
21.12
20.52
19.53
18.23
16.68
14.85
12.63
9.95
6.85
3.51
0.13
-3.10
-6.14
-9.08
-12.10
-15.39
-19.03
-22.92
-26.76
-30.06
-32.23
-32.77
-31.37
-28.02
-23.05
-17.01
-10.49
-4.05
1.87
6.95
10.95
13.76
15.39
16.07
16.13
15.97
15.90
16.08
16.49
16.98
17.43
17.76
18.00
18.20
18.40
18.54
18.46
17.95
16.82
14.97
12.44
9.41
6.13
2.88
-0.14
-2.84
-5.26
-7.55
-9.90
-12.57
-15.72
-19.34
-23.21
-26.83
-29.56
-30.70
-29.75
-26.57
-21.44
-15.06
-8.27
-1.88
3.52
7.67
10.51
12.14
12.65
12.19
10.93
9.14
7.15
5.27
3.77
2.73
2.16
1.97
2.09
2.50
3.26
4.45
6.13
8.23
10.53
12.59
13.88
13.95
12.47
9.51
5.45
0.94
-3.36
-6.98
-9.79
-12.03
-14.20
-16.86
-20.41
-24.96
-30.18
-35.45
-39.85
-42.50
-42.65
-39.95
-34.58
-27.25
-18.99
-10.93
-3.96
1.42
5.18
7.64
9.27
10.51
11.67
12.90
14.20
15.50
16.70
17.66
18.19
18.11
17.30
15.72
13.51
10.94
8.40
6.28
4.80
4.00
3.72
3.64
3.44
2.88
1.86
0.42
-1.32
-3.18
-4.95
-6.45
-7.47
-7.87
-7.57
-6.60
-5.08
-3.16
-0.90
1.74
4.87
8.54
12.56
16.48
19.57
21.04
20.28
17.13
12.03
6.07
0.82
-2.10
-1.40
3.30
11.31
20.88
29.71
35.45
36.30
31.38
20.95
6.47
-9.54
-24.02
-34.07
-37.92
-35.54
-28.58
-19.71
-11.62
-6.13
-3.79
-4.23
-6.68
-10.51
-15.24
-20.20
-24.40
-26.60
-25.96
-22.44
-17.05
-11.44
-7.31
-5.58
-5.98
-7.32
-8.02
-6.87
-3.39
2.17
9.06
15.95
21.66
25.40
26.86
26.14
23.59
19.85
15.68
11.87
8.16
4.10
-0.51
-5.23
-9.12
-11.21
-10.93
-8.31
-4.05
-0.40
0.66
-1.77
-7.32
-15.12
-24.82
-36.57
-50.53
-66.24
-83.95
-103.07
-122.29
-139.94
-154.91
-167.07
-176.78
-184.14
-179.31
-156.03
-114.82
-63.84
-13.53
29.15
61.94
85.74
102.62
114.64
121.70
123.54
120.35
113.20
103.33
91.44
77.80
63.11
49.45
37.92
30.43
28.44
32.27
40.90
52.22
63.95
74.39
82.21
85.78
84.22
77.68
68.27
60.16
58.15
65.60
83.20
107.15
130.88
147.64
152.35
143.16
122.15
93.92
63.76
36.25
13.87
-2.63
-10.43
-7.52
4.62
21.86
39.97
54.40
65.02
70.79
69.66
59.13
38.81
9.45
-25.84
-61.96
-93.38
-115.49
-126.42
-126.71
-118.80
-106.30
-92.94
-81.00
-71.10
-62.81
-55.53
-49.72
-46.71
-48.70
-58.14
-76.73
-103.77
-135.22
-163.87
-180.71
-178.18
-153.04
-108.58
-54.21
-2.58
35.12
52.81
51.13
36.09
15.83
-2.31
-14.02
-17.94
-14.84
-6.62
4.27
15.36
24.89
32.46
39.17
46.30
55.21
66.52
79.47
92.10
102.06
107.66
108.18
103.44
91.66
71.85
44.97
14.11
-16.65
-43.42
-63.51
-76.20
-82.56
-87.20
-93.06
-99.43
-103.14
-101.59
-94.83
-85.78
-79.03
-79.03
-91.77
-118.79
-155.79
-194.83
-228.31
-251.49
-262.88
-263.71
-236.73
-179.37
-105.85
-37.19
14.07
46.86
65.78
75.83
80.62
82.57
80.10
73.17
64.51
58.07
56.24
59.22
66.02
75.09
85.84
94.55
98.09
95.20
86.53
73.43
57.82
42.07
28.68
19.37
12.74
7.00
1.21
-4.58
-10.29
-16.13
-22.83
-30.54
-38.46
-45.40
-48.83
-45.61
-33.83
-14.47
8.80
31.01
48.04
57.94
60.81
58.33
52.62
45.39
37.63
31.13
28.12
30.77
40.30
56.73
79.21
106.21
135.44
162.90
184.52
195.68
192.39
172.53
136.75
88.54
33.43
-22.00
-71.63
-107.74
-123.87
-116.83
-88.06
-42.77
12.73
73.95
139.74
201.44
249.23
273.07
267.73
235.21
184.02
126.79
76.72
46.77
33.97
32.49
35.23
36.23
32.74
25.65
17.99
11.52
7.79
5.62
4.85
6.16
11.74
24.43
45.46
72.36
98.39
114.20
110.29
82.90
34.83
-24.94
-83.88
-129.74
-154.12
-154.75
-135.63
-105.81
-74.83
-50.30
-36.13
-32.44
-36.87
-46.25
-57.72
-69.11
-78.92
-85.48
-87.44
-84.36
-77.17
-68.14
-60.13
-55.75
-56.33
-61.63
-69.91
-78.68
-85.62
-89.38
-89.92
-88.31
-86.13
-84.78
-85.01
-86.83
-89.70
-92.80
-95.25
-96.28
-95.27
-91.88
-86.07
-78.11
-68.56
-58.11
-47.44
-37.20
-27.87
-19.84
-13.34
-8.44
-4.96
-2.54
-0.63
1.36
3.87
7.15
11.05
15.18
19.00
22.03
24.08
25.25
25.86
26.26
26.56
26.59
26.02
24.58
22.29
19.46
16.56
13.98
11.80
9.71
7.13
3.43
-1.86
-8.80
-16.89
-25.12
-32.08
-36.36
-37.00
-33.85
-27.63
-19.66
-11.40
-3.97
2.11
6.78
10.18
12.40
13.36
13.03
11.56
9.35
7.05
5.23
4.31
4.37
5.27
6.80
8.82
11.32
14.31
17.75
21.36
24.70
27.22
28.44
28.10
26.27
23.30
19.70
16.01
12.57
9.56
6.90
4.38
1.66
-1.62
-5.86
-11.30
-17.94
-25.27
-32.25
-37.45
-39.38
-37.10
-30.51
-20.51
-8.64
3.46
14.53
23.97
31.69
37.88
42.65
46.03
48.04
48.91
49.15
49.38
50.10
51.43
53.09
54.55
55.32
55.20
54.31
53.05
51.82
50.81
49.90
48.75
46.90
44.02
40.08
35.40
30.56
26.18
22.68
20.09
18.01
15.78
12.73
8.41
2.74
-3.91
-10.77
-16.86
-21.11
-22.64
-20.98
-16.26
-9.17
-0.86
7.45
14.72
20.28
23.85
25.34
24.75
22.10
17.53
11.41
4.45
-2.46
-8.46
-12.87
-15.28
-15.39
-12.89
-7.42
1.22
12.81
26.52
41.06
55.09
67.64
78.42
87.83
96.69
105.90
116.00
126.89
137.55
146.01
149.64
145.80
132.70
110.19
79.93
44.99
8.90
-25.31
-55.71
-81.50
-102.50
-118.66
-129.82
-135.86
-137.09
-134.60
-130.06
-125.41
-122.11
-120.72
-120.69
-120.77
-119.54
-116.06
-110.26
-102.90
-95.26
-88.54
-83.47
-79.95
-77.29
-74.56
-71.05
-66.68
-61.88
-57.42
-53.97
-51.91
-51.30
-52.06
-54.12
-57.36
-61.56
-66.28
-71.01
-75.42
-79.60
-83.99
-89.12
-95.06
-101.03
-105.52
-106.67
-103.12
-94.52
-81.83
-66.99
-52.32
-39.78
-30.50
-24.68
-21.79
-21.01
-21.62
-23.08
-25.08
-27.21
-28.87
-29.30
-27.70
-23.58
-16.99
-8.53
0.92
10.39
19.25
27.28
34.65
41.75
48.94
56.44
64.08
71.34
77.42
81.41
82.59
80.66
75.84
68.78
60.32
51.08
41.44
31.76
22.56
14.76
9.52
7.94
10.56
16.99
25.89
35.54
44.38
51.49
56.59
59.87
61.64
62.09
61.31
59.12
55.98
53.00
51.45
52.16
54.85
58.22
60.47
60.03
55.42
46.49
34.13
19.47
3.24
-14.06
-31.62
-47.98
-61.37
-71.80
-79.68
-85.70
-90.57
-94.79
-98.49
-101.79
-105.24
-109.87
-118.16
-130.23
-143.16
-152.12
-152.97
-144.34
-128.57
-110.61
-86.16
-57.05
-28.57
-6.07
8.56
16.49
19.55
18.85
15.23
9.94
3.23
-3.02
-6.40
-5.07
0.48
9.46
20.21
31.06
41.11
49.02
55.42
61.87
70.21
81.76
97.22
116.31
138.01
160.82
177.62
183.55
176.21
156.54
128.40
97.34
68.53
45.23
28.22
15.93
7.02
0.72
-2.95
-3.78
-1.96
1.56
5.55
9.13
11.97
14.88
18.81
24.10
30.17
35.91
39.95
41.33
39.92
36.26
31.66
27.22
23.53
20.65
18.72
17.63
17.26
17.50
18.35
19.99
22.48
25.49
28.55
31.71
34.77
37.35
39.17
40.41
41.97
44.94
50.14
57.69
67.58
78.51
88.13
93.84
93.82
87.86
77.44
65.24
49.48
31.66
15.20
3.51
-2.07
-2.61
-0.40
2.00
1.98
-2.04
-9.36
-17.93
-24.68
-25.78
-18.69
-1.92
23.40
52.23
77.86
94.81
99.72
91.94
73.23
46.90
16.85
-14.00
-44.29
-71.61
-92.71
-104.97
-108.10
-104.68
-99.57
-98.24
-105.63
-126.46
-161.20
-205.09
-249.90
-287.08
-310.44
-317.59
-309.63
-277.38
-222.08
-154.33
-87.88
-31.49
13.17
48.38
75.05
96.65
115.51
132.00
148.18
167.77
194.39
227.68
263.50
295.45
317.77
326.86
321.00
302.18
274.75
243.14
209.73
174.81
137.65
98.18
57.08
14.84
-27.51
-68.66
-107.34
-142.59
-173.67
-200.49
-224.01
-246.97
-273.33
-305.40
-341.57
-375.36
-397.22
-398.28
-374.56
-329.35
-272.69
-217.76
-175.88
-152.85
-147.96
-155.69
-168.45
-179.09
-182.32
-175.20
-157.19
-129.94
-97.01
-63.01
-32.25
-7.15
12.51
29.34
46.76
67.21
90.86
115.53
137.73
154.12
162.54
162.26
153.52
136.90
113.13
83.21
48.81
12.40
-23.06
-54.68
-80.38
-99.28
-111.63
-118.21
-119.80
-116.75
-108.89
-95.96
-77.98
-55.48
-29.31
-0.38
30.67
63.38
97.10
130.57
161.88
188.93
210.20
225.42
235.57
242.26
246.62
248.67
247.37
241.53
230.82
216.30
200.11
184.41
170.21
156.86
142.61
125.82
106.29
85.84
67.77
55.42
50.46
51.90
56.30
59.04
56.15
45.70
28.41
7.09
-14.53
-33.18
-46.86
-54.95
-57.82
-56.28
-51.20
-43.44
-33.94
-23.99
-15.26
-9.54
-8.23
-11.68
-18.95
-27.87
-35.80
-40.60
-41.42
-39.04
-35.40
-32.73
-32.64
-35.45
-40.11
-44.70
-47.19
-46.33
-42.22
-36.37
-31.21
-29.21
-32.02
-39.96
-52.05
-66.45
-80.92
-93.26
-101.58
-104.54
-101.66
-93.61
-82.13
-69.41
-57.11
-45.48
-33.29
-18.68
-0.65
19.76
39.50
54.55
61.70
59.97
51.10
38.85
27.47
20.13
18.07
20.59
26.00
32.70
39.76
47.03
54.28
60.49
63.81
62.24
54.85
42.52
27.74
13.47
1.75
-7.38
-15.64
-25.24
-37.32
-51.04
-63.92
-73.25
-77.56
-77.25
-74.77
-73.53
-76.48
-84.84
-97.51
-111.62
-123.40
-129.01
-124.45
-107.60
-79.82
-46.73
-16.91
1.41
4.18
-6.15
-21.15
-28.11
-17.41
12.71
55.28
98.65
132.69
153.20
162.49
166.66
174.78
192.38
219.35
250.79
280.55
304.75
322.79
335.87
344.95
353.62
364.17
377.14
391.73
407.51
425.52
447.17
471.99
470.95
422.56
323.07
191.43
56.89
-57.71
-142.68
-198.68
-232.09
-250.53
-257.52
-255.09
-245.90
-234.22
-224.60
-219.74
-219.41
-223.11
-229.87
-237.07
-242.83
-247.55
-254.41
-267.37
-288.14
-314.28
-340.29
-351.40
-337.85
-297.23
-235.67
-165.70
-101.04
-52.72
-21.42
-4.26
3.46
5.95
6.24
5.61
3.99
1.18
-2.42
-5.32
-6.02
-2.94
4.16
14.47
26.04
36.06
41.93
41.79
35.24
23.05
7.51
-8.78
-22.45
-30.13
-29.13
-18.37
0.52
23.40
44.68
59.45
64.49
59.70
47.94
32.82
19.70
12.89
13.27
18.51
25.32
30.76
33.34
32.75
29.09
23.10
14.63
3.49
-9.75
-23.74
-37.43
-49.93
-60.76
-69.95
-78.05
-84.23
-88.57
-91.10
-88.41
-79.06
-63.87
-45.51
-27.08
-10.66
2.36
10.93
14.66
13.96
9.59
3.31
-2.53
-5.74
-4.71
0.58
8.40
16.18
21.47
22.62
19.92
15.68
13.20
16.03
26.44
44.51
68.03
92.74
112.57
121.23
115.31
92.91
57.21
15.95
-21.13
-45.73
-54.04
-47.94
-33.43
-17.61
-5.91
-0.49
-0.65
-4.31
-9.96
-17.14
-25.74
-34.90
-42.87
-47.71
-48.01
-43.72
-36.29
-27.79
-20.02
-13.89
-8.66
-2.70
5.82
18.20
34.09
50.98
64.67
70.92
67.34
54.66
36.42
17.47
1.95
-8.21
-13.58
-16.12
-17.43
-18.04
-17.48
-15.29
-11.91
-8.84
-7.81
-9.79
-14.31
-19.61
-23.68
-25.15
-24.10
-22.00
-20.68
-21.14
-22.88
-24.16
-22.93
-18.41
-11.98
-6.82
-6.50
-13.11
-26.51
-44.30
-62.88
-78.48
-88.21
-90.32
-83.93
-68.77
-45.41
-15.65
17.90
50.28
76.94
95.84
108.56
119.64
134.32
155.96
183.82
213.78
240.28
258.84
267.28
265.65
255.48
238.72
217.03
190.56
159.59
125.67
91.89
61.93
38.73
23.70
16.27
13.93
10.61
1.04
-16.58
-40.06
-65.60
-90.20
-112.49
-132.14
-148.58
-163.39
-175.25
-179.07
-169.01
-143.76
-109.07
-75.41
-53.46
-50.31
-72.76
-121.85
-192.17
-274.31
-359.25
-439.71
-508.86
-559.67
-556.60
-482.89
-353.86
-208.90
-83.24
7.59
65.36
100.16
123.49
143.79
160.18
172.61
183.52
196.99
214.01
230.77
241.00
240.13
227.02
200.87
163.30
121.38
86.97
67.97
63.71
64.97
63.90
55.14
33.72
-0.52
-42.66
-83.92
-116.02
-134.06
-137.47
-129.02
-113.65
-97.55
-84.93
-77.22
-73.98
-74.59
-78.10
-82.74
-85.77
-84.64
-78.37
-67.41
-52.99
-36.35
-17.98
3.00
27.98
57.72
90.90
124.25
153.45
174.76
185.96
187.14
180.42
169.09
156.18
144.39
135.85
131.95
133.52
139.93
142.97
134.95
113.58
83.25
51.82
24.63
1.31
-20.61
-47.03
-81.43
-123.98
-171.48
-220.41
-267.75
-308.37
-339.21
-357.24
-358.19
-328.75
-261.79
-161.77
-46.64
61.52
145.43
197.52
220.90
225.05
220.60
213.34
210.15
205.28
193.41
171.94
140.85
103.02
63.18
26.87
-1.85
-20.23
-27.73
-24.64
-11.27
9.80
34.48
58.39
78.26
92.05
99.59
101.03
97.48
89.44
76.22
57.22
32.87
4.89
-24.68
-53.85
-81.48
-105.91
-125.08
-137.12
-140.60
-135.48
-123.55
-108.21
-92.96
-80.12
-69.57
-59.61
-48.54
-35.65
-21.66
-8.12
3.55
12.67
19.10
22.82
23.24
19.09
9.28
-6.10
-25.13
-44.40
-60.07
-69.23
-70.82
-65.53
-54.96
-40.63
-23.51
-4.24
16.09
35.50
51.23
60.55
61.90
55.46
43.04
27.25
10.41
-6.15
-22.18
-38.07
-54.12
-70.06
-84.87
-97.08
-105.21
-108.10
-105.05
-95.71
-80.00
-58.12
-30.69
0.97
34.88
68.64
99.96
127.10
149.17
165.96
177.62
184.29
186.03
182.98
175.70
165.36
153.54
141.87
131.49
122.78
115.23
107.82
99.46
89.48
77.92
65.52
53.34
42.39
33.17
25.48
18.49
11.15
2.54
-7.63
-19.06
-30.96
-42.56
-53.44
-63.63
-73.36
-82.62
-90.87
-96.99
-99.75
-98.27
-92.51
-83.28
-72.02
-60.23
-49.10
-39.34
-31.18
-24.65
-19.80
-16.74
-15.55
-16.00
-17.56
-19.48
-21.07
-21.76
-21.40
-20.23
-18.79
-17.68
-17.34
-18.00
-19.72
-22.40
-25.66
-29.10
-32.43
-35.65
-39.00
-42.79
-47.32
-52.73
-58.91
-64.95
-69.95
-73.61
-76.62
-80.33
-86.10
-94.60
-105.49
-117.33
-126.79
-130.80
-127.80
-118.74
-106.41
-94.13
-84.65
-79.46
-78.63
-79.05
-77.24
-70.70
-59.11
-43.48
-24.61
-2.32
24.10
55.32
93.65
139.59
191.14
243.64
292.20
334.03
368.71
396.67
402.32
374.13
311.87
230.72
151.64
90.02
51.08
31.54
22.87
16.06
9.86
4.69
2.76
4.87
10.00
16.28
22.13
25.70
26.58
28.20
33.55
44.75
60.66
77.91
92.89
103.36
106.14
99.89
87.39
73.83
64.66
62.59
67.21
75.69
84.24
85.05
72.28
46.09
12.24
-21.45
-49.51
-70.54
-86.89
-102.29
-125.95
-165.21
-221.84
-292.04
-369.44
-447.97
-521.54
-583.70
-596.88
-537.34
-410.76
-252.28
-102.60
12.87
87.80
129.31
146.85
154.09
154.21
146.68
132.09
114.37
98.49
87.24
84.26
88.39
96.99
102.33
98.29
83.56
62.26
40.88
24.63
15.83
13.23
14.18
12.79
4.58
-11.26
-31.67
-51.98
-68.49
-79.46
-85.53
-87.96
-89.52
-92.20
-96.33
-100.84
-104.44
-106.67
-107.86
-108.74
-109.11
-108.26
-104.58
-96.15
-81.66
-61.08
-35.97
-8.73
18.12
42.83
64.44
82.54
96.91
107.35
113.77
116.39
115.85
112.92
108.28
102.16
94.48
85.05
73.95
61.67
49.06
36.97
26.08
16.74
9.08
3.22
-0.82
-3.09
-3.85
-3.59
-2.95
-2.53
-2.78
-4.00
-6.35
-9.94
-14.80
-20.85
-27.77
-34.95
-41.49
-46.23
-47.98
-45.75
-39.18
-28.78
-16.05
-3.23
7.35
13.94
15.98
14.19
10.27
6.21
3.65
3.36
5.32
8.95
13.58
18.71
24.07
29.49
34.59
38.82
41.47
42.03
40.42
37.06
32.79
28.49
24.82
22.05
20.06
18.57
17.35
16.29
15.44
14.89
14.64
14.59
14.57
14.46
14.19
13.76
13.14
12.26
10.97
9.17
6.92
4.49
2.26
0.65
-0.18
-0.42
-0.66
-1.83
-4.79
-10.11
-17.66
-26.45
-34.74
-40.50
-42.01
-38.41
-29.96
-17.92
-4.05
9.87
22.52
33.04
40.93
45.81
47.36
45.36
39.87
31.34
20.57
8.54
-3.79
-15.69
-26.73
-36.72
-45.67
-53.55
-60.20
-65.18
-67.84
-67.51
-63.83
-56.97
-47.80
-37.70
-28.22
-20.57
-15.31
-12.17
-10.23
-8.26
-5.22
-0.59
5.45
12.04
17.91
21.71
22.38
19.52
13.47
5.33
-3.19
-10.19
-13.96
-13.52
-8.81
-0.63
9.64
20.62
31.23
40.82
49.01
55.44
59.67
61.35
60.46
57.55
53.73
50.33
48.49
48.69
50.62
53.22
54.86
53.66
47.89
36.63
20.51
2.14
-14.10
-23.27
-21.76
-8.88
12.41
36.34
56.34
67.41
67.59
58.21
42.59
24.50
6.88
-8.68
-21.76
-32.65
-41.96
-50.56
-59.54
-69.95
-82.20
-95.48
-107.67
-116.27
-119.43
-116.72
-109.26
-99.04
-88.13
-77.95
-68.95
-60.94
-53.50
-46.17
-38.25
-29.02
-18.32
-7.47
0.87
3.66
-1.33
-14.73
-35.21
-59.67
-83.99
-104.08
-116.81
-119.36
-109.09
-84.21
-45.57
2.47
52.69
97.07
129.25
146.06
147.11
135.58
118.70
104.43
96.74
94.09
91.65
84.62
69.45
46.43
17.48
-13.71
-42.61
-64.96
-77.59
-79.39
-67.77
-47.29
-26.10
-11.27
-5.15
-5.49
-8.37
-10.70
-11.22
-9.98
-8.27
-5.22
1.28
13.32
31.65
54.58
78.55
99.27
113.24
118.15
114.50
105.08
91.48
76.59
62.45
49.73
38.07
26.88
15.61
4.70
-4.87
-12.32
-17.30
-20.61
-23.58
-27.27
-32.03
-37.61
-43.20
-48.10
-52.07
-55.18
-57.99
-61.18
-65.04
-69.22
-72.83
-74.64
-73.62
-69.24
-61.49
-51.12
-39.27
-27.16
-15.79
-5.72
2.84
9.89
15.50
19.84
22.99
24.95
25.67
25.14
23.44
20.84
17.77
14.87
12.94
12.70
14.38
17.52
20.94
23.24
23.22
20.37
15.21
9.19
4.19
1.66
1.83
3.59
4.90
3.63
-1.64
-10.55
-20.61
-27.68
-27.84
-19.41
-4.12
13.30
26.85
31.48
25.31
10.45
-7.76
-22.83
-29.48
-24.93
-9.23
15.06
41.82
62.41
68.13
55.67
30.18
3.03
-13.64
-11.70
10.12
46.02
85.43
116.90
132.21
128.65
109.11
80.14
48.98
20.82
-2.25
-20.08
-32.64
-38.75
-37.12
-27.98
-14.31
-1.38
4.81
0.13
-15.79
-38.87
-61.56
-76.10
-77.05
-63.53
-39.52
-12.50
9.55
21.16
21.26
13.80
5.43
2.28
7.62
20.86
37.66
52.42
60.10
57.94
46.41
28.91
10.59
-3.70
-10.58
-10.52
-6.68
-2.69
-0.57
-0.14
0.49
2.47
5.30
6.81
4.57
-2.38
-13.03
-25.00
-35.69
-43.23
-46.63
-45.50
-40.11
-31.24
-20.02
-8.14
2.51
10.45
15.29
18.31
21.93
27.78
36.83
49.63
66.65
88.47
116.40
149.06
182.80
211.93
228.44
226.35
204.50
167.08
121.73
76.43
36.68
4.51
-21.35
-46.57
-75.69
-110.06
-148.23
-187.74
-226.67
-263.60
-296.52
-322.76
-342.88
-357.08
-364.80
-365.62
-360.09
-350.01
-337.49
-323.79
-289.41
-228.40
-150.29
-73.65
-12.38
30.66
59.58
79.67
94.54
105.48
109.02
103.83
93.11
83.01
79.50
86.77
105.45
133.81
168.75
203.43
232.08
251.21
254.35
239.96
210.97
173.83
136.18
103.53
75.34
46.56
14.29
-20.65
-53.03
-76.11
-84.75
-77.89
-55.36
-26.87
-4.06
5.90
2.64
-8.28
-19.86
-27.79
-31.58
-33.64
-37.74
-45.05
-53.76
-60.89
-63.86
-62.15
-57.35
-52.08
-48.48
-47.80
-48.81
-49.12
-46.55
-40.24
-30.36
-18.50
-6.63
3.70
11.69
18.33
24.96
32.55
41.34
50.96
60.63
69.60
77.33
83.44
88.67
93.54
98.33
103.04
107.34
110.37
110.94
107.92
96.44
77.26
53.79
30.65
11.89
-0.22
-5.66
-6.09
-3.85
-0.87
2.41
5.80
9.31
12.77
15.91
18.22
19.40
19.39
18.55
17.78
17.56
17.82
18.08
17.55
15.52
11.71
5.91
-1.46
-9.49
-17.41
-24.61
-30.82
-35.98
-40.16
-43.54
-46.31
-48.69
-51.23
-54.43
-58.57
-63.27
-67.48
-69.59
-68.32
-63.42
-55.84
-47.99
-42.35
-40.84
-44.64
-54.02
-68.41
-86.92
-108.36
-127.38
-139.46
-140.49
-128.41
-104.30
-72.20
-37.61
-6.23
18.01
33.57
40.45
40.73
36.84
30.58
22.06
12.37
2.98
-4.66
-10.39
-15.11
-17.84
-15.74
-5.45
15.41
47.08
86.34
125.64
156.07
164.36
143.30
95.78
33.98
-26.18
-69.89
-94.65
-101.56
-93.32
-73.59
-45.86
-15.44
8.16
15.53
2.95
-25.96
-62.63
-99.13
-130.79
-155.03
-170.50
-177.19
-175.19
-165.47
-150.50
-132.80
-114.52
-96.15
-77.87
-58.55
-36.92
-11.88
17.08
49.50
84.27
119.11
150.55
174.69
188.04
188.52
176.43
154.45
126.45
96.33
66.70
38.88
13.66
-7.56
-22.77
-29.72
-27.19
-15.94
1.22
20.48
38.57
53.96
67.23
80.17
94.52
110.73
127.67
142.96
154.09
159.35
158.44
152.49
143.46
133.45
124.01
115.90
109.07
103.03
97.34
91.84
86.72
82.09
77.68
72.72
66.21
57.46
46.52
34.27
22.11
11.33
2.56
-4.44
-10.52
-16.68
-23.70
-31.92
-41.20
-51.00
-60.63
-69.36
-76.51
-81.44
-83.65
-82.96
-79.57
-74.06
-66.96
-58.90
-50.46
-42.15
-34.34
-27.24
-21.00
-15.76
-11.68
-8.45
-5.90
-4.20
-3.69
-4.45
-6.03
-7.64
-8.43
-7.98
-5.78
-2.14
1.92
5.07
6.51
6.33
5.20
4.14
4.21
7.50
15.61
28.78
45.41
62.34
75.90
83.04
82.58
70.12
46.48
17.38
-9.59
-29.69
-42.73
-50.93
-56.13
-58.78
-58.48
-54.29
-46.67
-37.62
-29.64
-24.39
-21.88
-20.89
-19.93
-17.96
-14.12
-8.59
-2.68
1.94
4.05
3.59
1.45
-1.13
-3.27
-4.26
-4.40
-4.89
-7.27
-12.74
-21.31
-31.85
-42.67
-52.52
-60.40
-66.29
-71.14
-76.42
-83.71
-94.35
-109.27
-128.50
-150.74
-172.37
-188.46
-194.73
-189.81
-176.33
-160.22
-148.32
-145.51
-153.19
-168.56
-186.47
-201.67
-210.40
-210.78
-202.17
-184.45
-155.23
-115.45
-67.84
-16.08
36.44
87.48
135.73
180.29
219.86
252.70
276.74
291.33
297.57
298.00
295.76
293.67
293.67
296.90
303.95
314.73
329.13
346.68
366.48
387.16
407.10
424.67
438.27
446.29
446.76
438.34
420.61
394.31
361.04
322.95
282.36
241.24
201.21
163.07
127.53
95.36
67.24
43.36
23.27
5.96
-9.89
-25.39
-41.78
-59.33
-77.34
-94.63
-110.35
-124.51
-137.68
-151.01
-165.62
-184.13
-207.84
-235.76
-264.86
-291.53
-312.76
-326.38
-332.15
-331.01
-328.48
-328.72
-332.35
-336.98
-339.83
-339.68
-336.19
-331.03
-325.68
-326.98
-338.59
-358.75
-381.75
-402.53
-419.10
-430.69
-439.26
-445.97
-458.61
-480.88
-509.87
-538.20
-559.85
-573.03
-577.62
-576.76
-524.15
-402.12
-230.60
-53.09
96.46
207.13
275.71
320.62
352.23
374.51
380.04
363.63
326.85
277.89
226.63
180.30
144.63
119.04
100.55
79.68
50.84
15.78
-18.15
-43.70
-57.48
-56.67
-43.38
-21.14
2.84
24.24
43.26
63.06
86.57
114.87
151.92
198.79
254.81
316.24
379.66
442.41
501.34
551.88
588.45
611.70
622.56
621.65
608.66
584.51
552.01
515.26
478.71
416.45
321.31
204.66
87.61
-14.43
-96.57
-159.79
-206.49
-238.92
-260.66
-271.17
-271.60
-265.35
-256.38
-246.80
-236.23
-223.45
-205.83
-182.62
-151.78
-114.99
-78.65
-51.17
-38.66
-42.03
-59.74
-82.69
-100.53
-107.45
-102.75
-90.19
-75.09
-61.50
-51.00
-43.34
-37.29
-33.80
-32.26
-31.27
-30.55
-29.60
-28.34
-26.89
-25.52
-24.32
-24.24
-26.11
-30.22
-35.66
-40.91
-43.34
-39.95
-28.68
-9.28
15.67
41.57
63.54
75.43
74.07
60.26
38.59
15.76
-1.93
-11.12
-12.11
-7.91
-2.32
2.40
6.11
10.20
16.16
24.37
33.71
42.27
48.30
51.00
50.99
49.72
48.56
48.25
48.46
47.91
44.84
37.57
25.12
7.82
-12.68
-33.75
-52.58
-67.15
-76.94
-83.03
-87.42
-92.00
-97.47
-103.08
-107.19
-108.23
-105.46
-99.28
-90.76
-81.05
-71.00
-61.20
-52.42
-45.85
-42.71
-43.51
-47.46
-52.26
-54.97
-53.12
-45.69
-33.50
-18.68
-3.66
9.74
20.72
29.39
36.22
41.52
45.25
47.15
46.93
44.58
40.36
34.78
28.60
22.74
18.32
16.41
17.91
23.12
31.57
42.04
52.85
62.50
69.88
74.40
75.94
74.65
70.92
65.17
57.89
49.48
40.62
31.65
22.69
13.86
5.64
-0.99
-4.87
-5.05
-1.27
6.61
17.75
30.49
42.79
53.03
60.46
64.99
67.22
67.76
68.24
69.67
72.22
75.44
79.05
83.28
88.52
95.40
104.04
115.42
129.32
143.99
156.38
163.48
163.50
156.08
142.85
116.73
76.74
28.29
-19.18
-58.05
-86.04
-103.41
-115.37
-125.45
-135.38
-144.02
-150.31
-153.72
-154.77
-154.39
-153.38
-152.40
-151.27
-149.71
-146.22
-139.85
-130.53
-118.97
-105.91
-91.62
-76.24
-59.55
-41.71
-22.63
-2.83
16.41
33.26
45.93
53.27
54.89
51.61
44.93
37.05
29.89
24.57
21.30
19.68
19.10
18.86
18.73
18.72
19.07
19.90
20.94
21.58
21.10
18.94
14.83
9.20
3.04
-2.42
-5.96
-6.59
-3.61
3.34
14.11
26.46
37.08
42.65
41.53
34.46
23.74
11.98
1.16
-7.79
-14.97
-20.79
-25.58
-29.30
-31.65
-32.27
-30.89
-27.17
-20.84
-11.86
-0.83
11.06
21.54
27.77
27.34
19.50
5.70
-10.74
-25.92
-36.67
-41.57
-41.08
-36.91
-31.03
-25.05
-19.93
-16.25
-14.40
-14.59
-16.53
-19.67
-23.25
-26.59
-29.43
-32.03
-34.99
-38.83
-43.69
-49.11
-54.27
-58.30
-60.56
-60.78
-59.13
-55.91
-51.43
-45.77
-38.78
-30.26
-20.18
-8.88
2.91
14.21
24.13
32.08
37.93
41.93
44.49
45.99
46.70
46.79
46.38
45.57
44.49
43.24
41.90
40.49
39.02
37.56
36.22
35.16
34.50
34.16
33.94
33.47
32.42
30.64
28.23
25.52
22.88
20.59
18.74
17.25
15.87
14.27
12.14
9.20
5.33
0.61
-4.63
-9.93
-14.84
-19.08
-22.61
-25.67
-28.64
-31.91
-35.66
-39.71
-43.46
-46.09
-46.91
-45.67
-42.69
-38.72
-34.43
-30.01
-24.99
-18.45
-9.57
1.90
15.41
29.72
43.32
54.85
63.37
68.41
69.99
68.57
64.96
60.18
55.18
50.63
46.73
43.25
39.78
35.97
31.72
27.12
22.37
17.51
12.48
7.14
1.54
-4.08
-9.35
-13.95
-17.79
-21.04
-24.04
-27.09
-30.35
-33.83
-37.40
-40.94
-44.28
-47.24
-49.50
-50.63
-50.20
-47.87
-43.51
-37.24
-29.45
-20.74
-11.86
-3.50
3.84
10.00
15.13
19.43
23.03
25.80
27.42
27.63
26.49
24.41
22.09
20.20
19.17
19.03
19.48
20.11
20.46
20.21
19.07
16.85
13.46
9.04
4.16
-0.27
-3.21
-3.96
-2.45
0.61
4.21
7.41
9.86
11.78
13.54
15.15
15.90
14.64
10.25
2.29
-8.74
-21.57
-34.64
-46.53
-56.14
-62.70
-65.59
-64.49
-59.48
-51.26
-41.04
-30.24
-20.09
-11.29
-3.96
2.12
7.24
11.47
14.72
16.82
17.84
18.09
18.15
18.50
19.39
20.68
21.91
22.62
22.56
21.83
20.84
19.98
19.37
18.72
17.41
14.76
10.43
4.50
-2.64
-10.43
-18.31
-25.59
-31.34
-34.21
-32.81
-26.14
-14.36
1.00
17.19
31.10
40.25
43.52
41.41
35.53
27.86
20.05
13.08
7.35
2.93
-0.19
-2.07
-2.87
-2.92
-2.43
-1.22
1.61
7.62
18.40
34.85
56.44
81.06
105.57
126.77
142.33
151.48
154.97
154.58
152.32
149.79
147.80
146.39
145.10
143.35
140.77
137.30
133.08
128.25
122.64
115.73
106.79
95.25
81.03
64.81
47.86
31.58
17.04
4.50
-6.53
-17.00
-27.74
-39.03
-50.47
-61.27
-70.83
-79.21
-87.29
-96.40
-107.59
-120.96
-135.55
-149.83
-162.26
-172.13
-179.58
-185.14
-189.13
-191.72
-193.81
-197.84
-207.62
-226.48
-254.81
-288.42
-319.28
-338.65
-341.12
-327.02
-302.00
-273.73
-247.97
-226.12
-205.41
-181.11
-149.13
-107.61
-57.00
0.41
60.97
119.93
171.83
211.61
236.08
244.80
240.24
226.86
209.39
191.61
175.78
162.80
152.68
144.94
138.68
132.68
125.62
116.48
104.98
91.81
78.33
66.12
56.24
48.84
43.15
37.83
31.59
23.76
14.70
5.74
-1.34
-4.96
-4.52
-0.47
5.89
12.79
18.69
22.64
24.47
24.80
24.61
24.64
25.21
26.13
26.95
27.21
26.73
25.75
24.76
24.17
23.76
22.89
21.06
18.11
14.38
10.53
7.26
5.02
3.77
1.96
-1.81
-8.06
-16.09
-24.46
-31.76
-37.30
-41.19
-44.35
-49.82
-59.70
-73.92
-90.26
-105.73
-118.17
-126.92
-132.77
-137.20
-144.59
-157.74
-176.11
-196.37
-214.32
-227.06
-233.89
-235.79
-234.59
-236.02
-244.10
-259.12
-278.33
-297.97
-315.37
-329.30
-339.43
-321.00
-261.73
-167.15
-58.94
38.97
113.42
163.97
197.47
221.95
242.54
256.27
256.58
242.41
216.89
185.88
155.78
131.49
115.65
108.91
107.43
107.41
106.83
107.14
108.22
108.33
105.01
97.04
85.79
73.03
61.65
54.40
51.99
52.42
52.08
47.69
38.20
26.00
14.76
8.74
10.29
18.27
29.13
39.61
48.19
55.19
61.57
67.30
71.35
72.30
69.31
62.75
54.27
45.97
39.71
36.41
35.97
37.54
39.95
42.17
43.62
44.28
44.41
44.53
45.15
46.53
48.51
50.50
51.68
51.40
49.88
46.95
42.92
38.10
32.60
26.29
19.01
10.79
2.06
-6.46
-13.98
-19.78
-23.36
-24.60
-23.71
-21.17
-17.71
-14.13
-11.28
-9.87
-10.21
-11.98
-14.26
-15.64
-14.47
-9.60
-0.59
11.91
26.37
40.80
53.23
62.21
66.86
67.26
63.63
56.62
47.17
36.31
25.09
14.49
5.28
-2.04
-7.26
-10.56
-12.34
-13.13
-13.51
-13.94
-14.70
-15.95
-17.70
-19.94
-22.66
-25.81
-29.34
-33.13
-37.04
-40.90
-44.57
-48.11
-51.67
-55.44
-59.46
-63.52
-67.31
-70.62
-73.61
-76.74
-80.53
-85.02
-89.47
-92.32
-91.92
-87.13
-77.99
-65.75
-52.31
-39.46
-28.34
-19.25
-12.10
-6.72
-3.15
-1.56
-1.94
-3.91
-6.83
-9.95
-12.88
-15.50
-17.85
-19.84
-21.10
-21.09
-19.35
-15.89
-11.32
-6.70
-3.09
-1.19
-1.12
-2.47
-4.62
-6.99
-9.38
-11.79
-14.33
-16.87
-18.99
-20.13
-19.85
-18.18
-15.85
-13.89
-13.27
-14.55
-17.62
-21.81
-26.27
-30.14
-32.84
-33.88
-32.54
-28.16
-20.39
-9.52
3.38
16.72
28.61
37.57
42.90
45.40
46.52
47.89
50.55
54.72
59.69
64.21
67.05
67.62
66.90
66.45
67.74
71.52
77.60
85.16
92.95
99.70
104.32
106.80
107.08
104.96
100.27
93.50
86.13
80.10
77.06
72.28
62.23
45.35
22.74
-2.87
-28.57
-51.77
-70.84
-85.15
-95.06
-100.60
-101.95
-99.54
-93.92
-86.17
-76.29
-64.38
-50.82
-36.32
-21.49
-7.42
4.14
11.46
13.61
10.97
5.00
-2.28
-8.91
-14.01
-16.68
-16.88
-15.28
-12.87
-10.50
-8.78
-7.97
-7.93
-8.01
-7.41
-5.70
-2.90
0.58
4.24
7.51
9.93
11.18
11.22
10.27
8.61
6.57
4.54
2.79
1.41
0.24
-1.08
-2.94
-5.54
-8.89
-12.72
-16.66
-20.36
-23.74
-27.07
-30.75
-35.19
-40.35
-45.69
-50.35
-53.43
-54.36
-53.03
-49.62
-44.32
-37.10
-27.78
-16.40
-3.53
9.56
21.26
30.19
35.69
38.08
38.44
38.03
37.73
37.77
37.87
37.65
36.97
36.10
35.59
35.86
36.98
38.59
40.01
40.59
39.90
37.93
34.95
31.44
27.81
24.29
20.82
17.23
13.29
8.96
4.48
0.31
-3.11
-5.63
-7.52
-9.39
-11.91
-15.54
-20.29
-25.76
-31.36
-36.48
-40.67
-43.47
-44.42
-42.92
-38.44
-30.77
-20.29
-8.10
4.25
15.16
23.53
29.00
31.99
33.30
33.74
33.81
33.60
33.08
32.25
31.37
30.80
30.82
31.40
32.25
32.88
32.91
32.17
30.73
28.80
26.55
24.13
21.57
18.96
16.34
13.73
11.04
8.03
4.45
0.11
-4.95
-10.42
-15.78
-20.47
-24.03
-26.34
-27.73
-28.94
-30.96
-34.56
-39.90
-46.16
-51.53
-53.71
-50.72
-41.58
-26.88
-8.57
10.48
27.34
39.66
46.17
46.88
43.15
37.43
32.71
31.80
36.49
46.98
61.90
78.75
94.76
107.71
116.36
120.45
120.45
117.26
112.03
106.10
100.74
96.86
94.56
92.94
90.25
84.58
74.64
60.42
43.19
24.95
7.57
-7.94
-21.61
-34.16
-46.37
-58.72
-71.09
-82.91
-93.33
-101.38
-106.11
-106.96
-104.13
-98.83
-93.25
-89.76
-89.93
-93.71
-99.24
-103.50
-103.51
-97.59
-85.91
-70.37
-53.78
-38.87
-27.50
-20.38
-17.17
-16.67
-17.20
-16.94
-14.33
-8.57
0.10
10.32
20.18
27.85
32.43
34.12
34.03
33.40
33.05
33.09
33.22
33.18
32.99
32.78
32.71
32.76
32.97
33.68
35.68
39.83
46.48
54.81
62.87
68.15
68.62
63.67
54.38
43.00
31.96
22.90
16.27
11.50
7.70
4.22
1.00
-1.66
-3.47
-4.73
-6.13
-8.58
-12.62
-18.12
-24.46
-30.92
-37.14
-43.31
-49.70
-56.10
-61.47
-64.11
-62.33
-55.46
-44.27
-31.07
-18.71
-9.52
-4.44
-2.90
-3.33
-4.13
-4.36
-4.04
-3.73
-3.94
-4.73
-5.72
-6.46
-6.80
-6.92
-7.27
-7.94
-8.55
-8.33
-6.64
-3.50
0.24
3.34
4.68
3.95
1.74
-0.86
-2.95
-4.28
-5.33
-6.80
-9.21
-12.54
-16.35
-20.16
-23.85
-27.67
-32.04
-37.11
-42.55
-47.71
-51.89
-54.75
-56.43
-57.34
-57.78
-57.68
-56.45
-53.32
-47.76
-39.88
-30.53
-21.01
-12.64
-6.23
-1.94
0.68
2.29
3.46
4.44
5.21
5.64
5.77
5.85
6.19
7.11
8.62
10.54
12.53
14.30
15.73
16.90
17.94
18.91
19.76
20.19
19.92
18.68
16.42
13.37
10.01
6.94
4.61
3.21
2.42
1.64
0.15
-2.52
-6.43
-11.20
-16.29
-21.26
-25.98
-30.54
-34.98
-39.04
-42.09
-43.38
-42.33
-38.86
-33.42
-26.85
-20.03
-13.62
-7.95
-3.12
0.86
3.90
5.97
7.13
7.67
8.00
8.51
9.38
10.51
11.57
12.13
11.87
10.65
8.47
5.46
1.78
-2.43
-7.05
-11.97
-17.15
-22.57
-28.24
-34.09
-40.02
-45.89
-51.67
-57.58
-64.18
-72.20
-82.22
-94.39
-108.18
-122.49
-135.90
-146.94
-154.21
-156.42
-152.26
-140.56
-120.66
-92.87
-58.84
-21.46
15.71
49.25
76.66
96.73
109.52
115.98
117.64
116.27
113.62
111.22
110.14
110.71
112.47
114.30
114.87
113.18
108.87
102.34
94.41
85.93
77.44
69.07
60.73
52.42
44.40
37.12
30.94
25.87
21.51
17.26
12.69
7.76
2.90
-1.29
-4.44
-6.66
-8.40
-10.30
-12.81
-16.02
-19.80
-23.91
-28.34
-33.25
-38.76
-44.71
-50.45
-54.93
-57.05
-55.97
-51.64
-44.63
-36.01
-26.89
-18.05
-9.83
-2.29
4.58
10.56
15.29
18.43
19.95
20.24
20.00
19.95
20.63
22.15
24.31
26.85
29.58
32.50
35.64
38.90
41.97
44.25
45.16
44.41
42.14
38.98
35.71
32.92
30.82
29.05
27.01
24.21
20.51
16.18
11.75
7.68
4.16
0.97
-2.31
-6.13
-10.65
-15.72
-20.81
-25.11
-27.73
-27.99
-25.65
-21.11
-15.30
-9.38
-4.35
-0.66
1.90
3.93
6.15
9.00
12.55
16.56
20.64
24.44
27.72
30.26
31.91
32.71
32.88
32.87
33.20
34.16
35.66
37.10
37.58
36.22
32.61
26.95
19.93
12.31
4.54
-3.53
-12.36
-22.44
-33.72
-45.56
-57.07
-67.43
-76.21
-83.18
-88.08
-90.43
-89.85
-86.44
-81.12
-75.42
-70.74
-67.58
-65.39
-63.00
-59.60
-55.37
-51.56
-49.57
-49.98
-52.00
-53.74
-53.15
-49.03
-41.46
-31.47
-20.33
-8.86
2.71
14.30
25.35
34.59
40.27
40.86
35.88
26.24
13.99
1.58
-8.91
-16.26
-20.22
-21.30
-20.44
-18.75
-17.25
-16.74
-17.56
-19.45
-21.62
-23.05
-22.87
-20.63
-16.52
-11.19
-5.49
-0.15
4.42
8.18
11.36
14.37
17.46
20.75
24.09
27.16
29.68
31.48
32.63
33.35
33.97
34.83
36.25
38.48
41.68
45.86
50.83
56.20
61.44
66.07
69.81
72.55
74.37
75.33
75.44
74.76
73.34
71.41
69.24
66.98
64.65
62.07
59.02
55.42
51.40
47.19
42.96
38.65
34.04
28.91
23.28
17.48
12.04
7.43
3.84
1.15
-1.04
-3.21
-5.72
-8.75
-12.29
-16.18
-20.19
-24.08
-27.68
-30.95
-33.92
-36.66
-39.15
-41.30
-42.81
-43.31
-42.41
-39.75
-35.18
-28.75
-20.79
-11.88
-2.76
5.91
13.66
20.35
26.05
30.94
35.00
38.09
39.93
40.33
39.47
37.79
35.95
34.54
33.78
33.53
33.40
33.00
32.13
30.85
29.31
27.71
26.10
24.35
22.26
19.60
16.27
12.30
7.84
3.13
-1.56
-6.07
-10.32
-14.32
-18.09
-21.61
-24.81
-27.57
-29.87
-31.88
-33.98
-36.65
-40.21
-44.59
-49.19
-52.93
-54.61
-53.31
-48.70
-41.26
-32.08
-22.53
-13.87
-6.89
-1.79
1.69
4.06
5.85
7.43
8.98
10.55
12.10
13.56
14.79
15.62
15.78
15.11
13.58
11.38
8.98
6.89
5.61
5.38
6.11
7.44
8.83
9.74
9.76
8.77
6.85
4.32
1.60
-0.91
-2.86
-4.12
-4.81
-5.28
-5.97
-7.29
-9.40
-12.25
-15.58
-19.08
-22.59
-26.11
-29.80
-33.73
-37.73
-41.25
-43.52
-43.78
-41.71
-37.53
-32.00
-26.11
-20.65
-15.93
-11.74
-7.68
-3.58
0.28
3.19
4.46
3.81
1.62
-1.19
-3.48
-4.39
-3.38
-0.31
4.73
11.47
19.40
27.62
34.94
39.97
41.68
39.74
34.74
28.01
21.15
15.43
11.54
9.27
8.04
7.17
6.30
5.50
4.99
4.79
4.46
3.11
-0.11
-5.44
-12.19
-18.83
-23.66
-25.57
-24.48
-21.46
-18.04
-15.41
-13.93
-13.01
-11.62
-8.95
-4.81
0.29
5.55
10.37
14.64
18.63
22.72
26.94
30.93
33.93
35.17
34.22
31.23
26.98
22.58
19.13
17.29
17.08
17.93
18.96
19.37
18.70
16.93
14.32
11.21
7.90
4.60
1.49
-1.23
-3.43
-5.06
-6.24
-7.24
-8.28
-9.53
-10.96
-12.40
-13.65
-14.59
-15.30
-16.03
-17.11
-18.82
-21.23
-24.15
-27.14
-29.63
-31.04
-30.91
-29.00
-25.23
-19.80
-13.08
-5.57
2.25
9.97
17.37
24.28
30.50
35.67
39.38
41.25
41.18
39.43
36.54
33.07
29.38
25.55
21.50
17.19
12.88
9.11
6.50
5.44
5.85
7.15
8.41
8.77
7.63
4.91
0.89
-3.91
-8.94
-13.74
-17.99
-21.39
-23.76
-24.99
-25.22
-24.75
-24.09
-23.75
-24.15
-25.51
-27.86
-31.00
-34.53
-37.75
-39.85
-39.96
-37.48
-32.32
-24.96
-16.41
-7.85
-0.29
5.71
10.09
13.20
15.49
17.35
18.98
20.37
21.43
22.04
22.09
21.60
20.57
19.09
17.28
15.34
13.51
12.08
11.23
10.99
11.16
11.35
11.12
10.16
8.39
5.91
2.88
-0.62
-4.72
-9.61
-15.31
-21.46
-27.26
-31.78
-34.21
-34.30
-32.37
-29.19
-25.64
-22.38
-19.67
-17.42
-15.30
-12.89
-9.77
-5.66
-0.40
5.98
13.15
20.64
27.79
34.00
38.82
42.10
43.88
44.36
43.64
41.77
38.84
35.16
31.37
28.26
26.52
26.38
27.38
28.72
29.51
29.35
28.37
27.10
26.02
25.21
24.24
22.42
19.27
14.77
9.48
4.28
-0.11
-3.42
-6.05
-8.72
-12.14
-16.64
-22.00
-27.61
-32.74
-36.90
-40.40
-43.96
-48.40
-54.09
-60.62
-66.82
-71.15
-72.31
-69.88
-64.79
-58.67
-53.16
-49.24
-46.96
-45.76
-44.91
-44.12
-43.46
-43.42
-43.95
-44.30
-43.33
-40.40
-36.03
-32.04
-30.70
-30.56
-29.50
-24.69
-14.21
1.98
22.09
43.33
63.01
79.44
92.23
101.51
107.75
111.15
112.01
110.72
107.74
103.56
98.54
92.95
86.82
79.49
70.25
59.23
47.16
35.01
23.64
13.57
4.98
-2.51
-9.85
-18.32
-28.15
-38.53
-47.95
-54.82
-58.07
-57.85
-55.91
-51.53
-46.53
-42.40
-39.74
-38.56
-38.59
-39.49
-40.98
-42.77
-45.58
-49.94
-54.99
-59.13
-61.34
-61.68
-61.00
-60.71
-62.35
-68.89
-82.47
-102.51
-125.83
-147.90
-164.30
-171.73
-169.20
-148.83
-111.58
-67.30
-28.51
-2.35
11.08
15.50
15.01
12.12
8.05
2.08
-5.82
-13.93
-19.41
-20.33
-17.08
-10.01
-0.06
12.10
25.22
38.91
53.64
70.14
87.61
103.41
114.24
117.62
113.42
103.57
92.23
81.33
74.07
72.21
75.01
79.99
84.12
85.09
81.68
73.86
62.60
50.15
39.36
32.42
29.93
30.44
30.98
28.31
19.91
4.90
-18.57
-48.17
-78.42
-102.81
-116.27
-117.97
-107.62
-84.92
-50.67
-8.02
38.06
81.40
116.10
138.07
146.08
141.91
129.41
112.40
93.69
75.55
59.27
45.37
33.38
21.66
7.28
-12.73
-40.94
-77.46
-117.66
-152.71
-172.26
-168.20
-138.09
-86.27
-21.46
44.87
102.11
143.60
167.54
176.14
174.07
166.67
151.76
130.76
107.64
86.92
71.57
61.77
55.85
51.58
46.89
40.59
33.70
28.29
24.93
24.20
26.04
29.86
34.71
39.67
44.39
49.83
56.57
63.86
70.46
74.20
73.06
66.01
53.40
36.72
18.26
-0.42
-19.15
-38.82
-60.95
-86.77
-116.38
-148.19
-178.80
-203.45
-217.83
-219.87
-210.73
-194.71
-177.63
-164.79
-159.26
-161.15
-167.85
-175.04
-177.91
-172.23
-155.49
-127.86
-92.47
-54.79
-21.02
3.96
18.09
22.23
19.09
11.72
2.34
-7.74
-17.61
-26.25
-32.46
-35.37
-34.99
-32.34
-28.96
-26.32
-25.02
-24.70
-24.28
-22.66
-19.25
-14.41
-9.27
-5.21
-3.21
-3.31
-4.47
-4.91
-2.85
2.85
12.10
23.69
35.69
46.25
54.31
59.94
64.20
68.49
73.93
80.88
88.92
97.33
105.58
113.76
122.26
131.32
140.22
147.07
149.18
144.04
130.46
109.14
82.53
54.02
26.87
3.29
-15.79
-30.56
-41.84
-50.52
-57.20
-61.91
-64.11
-62.96
-57.71
-48.27
-35.58
-21.63
-9.10
-0.41
3.08
1.70
-2.56
-6.80
-8.44
-6.23
-1.04
4.80
8.50
8.35
4.51
-1.08
-5.95
-8.40
-8.42
-7.34
-6.81
-7.82
-10.25
-13.39
-16.89
-21.34
-28.18
-38.77
-53.36
-70.68
-88.31
-103.75
-115.70
-124.62
-132.62
-142.52
-156.65
-175.89
-199.31
-224.33
-247.47
-265.14
-274.66
-274.84
-266.32
-251.12
-231.88
-210.71
-188.55
-165.09
-139.44
-110.92
-79.73
-47.03
-14.43
16.66
45.36
71.38
94.63
114.98
132.29
146.67
158.81
170.12
182.48
197.58
216.15
237.23
258.14
275.27
285.40
287.00
280.86
269.51
256.00
242.44
229.34
215.91
201.11
184.57
167.03
149.92
134.55
121.35
109.75
98.45
86.02
71.44
54.45
35.63
16.18
-2.30
-18.16
-30.07
-37.18
-39.24
-36.53
-29.75
-19.79
-7.69
5.49
18.72
31.22
42.45
52.18
60.38
67.05
72.15
75.50
76.91
76.37
74.11
70.61
66.35
61.54
56.02
49.30
40.87
30.54
18.56
5.62
-7.30
-19.25
-29.46
-37.48
-43.24
-47.21
-50.29
-53.68
-58.52
-65.39
-73.97
-83.07
-90.87
-95.56
-95.83
-91.30
-82.64
-71.37
-59.55
-49.31
-42.38
-39.88
-42.25
-49.32
-60.19
-73.20
-85.82
-95.04
-98.09
-93.44
-81.55
-64.95
-47.33
-32.24
-21.73
-15.85
-13.04
-11.17
-8.44
-3.83
2.94
11.72
21.96
32.55
41.76
47.53
48.24
43.53
34.68
24.29
15.18
9.14
6.37
5.66
5.34
4.26
2.31
0.12
-1.55
-2.42
-2.74
-2.90
-2.91
-2.24
-0.02
4.37
10.76
18.07
24.80
29.64
32.09
32.56
31.89
30.65
28.66
24.97
18.46
8.57
-4.16
-18.14
-31.33
-42.06
-49.58
-54.20
-57.04
-59.51
-62.98
-68.44
-76.40
-86.74
-98.61
-110.40
-120.23
-126.54
-128.69
-127.38
-124.20
-120.84
-118.14
-115.50
-111.09
-102.66
-88.70
-69.05
-45.08
-19.06
6.64
30.26
50.99
68.95
84.95
100.08
115.35
131.10
146.83
160.99
171.45
176.23
174.35
166.35
154.13
140.12
126.27
113.39
101.19
88.95
76.39
64.14
53.77
47.06
45.22
48.34
55.26
63.95
72.07
77.54
78.78
74.91
65.85
52.25
35.43
17.11
-0.86
-16.92
-29.97
-39.61
-46.04
-50.06
-52.89
-55.90
-60.39
-67.28
-77.02
-89.45
-104.09
-120.22
-136.98
-153.43
-168.44
-180.76
-189.21
-193.02
-192.06
-186.93
-178.68
-168.54
-157.63
-146.82
-136.65
-127.33
-118.82
-110.78
-102.85
-94.87
-86.95
-79.35
-71.91
-63.50
-51.78
-33.62
-6.28
31.18
77.04
126.92
174.86
214.97
243.00
257.24
258.62
250.01
235.23
218.16
201.95
188.56
178.49
170.86
163.96
155.89
145.42
132.34
117.45
101.95
86.85
72.59
59.11
46.19
33.75
22.09
11.75
3.27
-2.91
-6.54
-7.45
-5.54
-1.01
5.42
12.49
18.44
21.56
20.69
15.54
6.80
-4.24
-16.02
-27.17
-36.67
-44.06
-49.25
-52.54
-54.45
-55.59
-56.59
-57.82
-59.45
-61.39
-63.55
-65.88
-68.44
-71.27
-74.26
-76.97
-78.76
-79.09
-77.71
-74.84
-70.98
-66.71
-62.34
-57.81
-52.93
-47.60
-42.13
-37.17
-33.47
-31.60
-31.76
-33.66
-36.78
-40.47
-44.05
-47.01
-49.01
-49.94
-49.88
-49.08
-47.65
-45.53
-42.44
-38.09
-32.50
-26.11
-19.66
-13.67
-8.07
-2.08
5.55
15.88
29.39
45.70
63.85
82.78
101.50
119.13
134.60
146.64
153.98
155.97
152.91
146.19
137.74
129.19
121.29
113.74
105.70
96.34
85.35
72.94
59.60
45.74
31.43
16.62
1.29
-14.28
-29.57
-43.93
-56.76
-67.66
-76.36
-82.61
-86.05
-86.25
-82.93
-76.10
-66.30
-54.49
-41.81
-29.32
-17.64
-6.92
3.03
12.48
21.59
30.30
38.39
45.67
52.09
57.77
62.89
67.63
72.15
76.65
81.35
86.51
92.19
98.22
104.23
109.76
114.42
117.77
119.43
118.96
116.04
110.65
103.32
95.16
87.60
81.85
78.51
77.32
77.24
76.91
74.95
70.35
62.58
51.47
37.25
20.37
1.61
-17.94
-36.96
-54.07
-68.19
-78.87
-86.36
-91.49
-95.31
-98.56
-101.46
-103.70
-104.73
-104.07
-101.63
-97.65
-92.69
-87.34
-82.09
-77.30
-73.18
-69.90
-67.54
-66.11
-65.49
-65.37
-65.25
-64.66
-63.21
-60.89
-58.01
-55.14
-52.95
-51.88
-52.10
-53.52
-55.82
-58.61
-61.55
-64.34
-66.89
-69.30
-71.94
-75.25
-79.62
-85.12
-91.36
-97.64
-103.23
-107.71
-111.09
-113.93
-116.96
-120.81
-125.64
-131.18
-136.35
-139.38
-138.30
-131.86
-120.01
-103.97
-85.89
-68.02
-52.37
-39.91
-30.58
-23.98
-19.77
-18.01
-18.78
-21.73
-25.98
-31.08
-36.57
-42.14
-47.76
-53.73
-60.25
-66.97
-73.00
-77.38
-81.55
-86.98
-94.17
-102.61
-111.44
-119.87
-127.09
-132.27
-134.70
-138.20
-145.24
-155.42
-166.07
-174.64
-180.06
-182.56
-182.99
-182.40
-187.97
-203.48
-226.88
-251.73
-271.97
-284.86
-291.03
-292.99
-293.40
-301.88
-322.50
-351.30
-379.16
-398.60
-407.32
-407.75
-404.21
-350.11
-229.94
-65.05
100.66
233.61
323.51
375.48
399.54
405.41
400.88
383.40
352.76
313.74
274.63
241.13
216.47
200.37
191.13
186.90
179.83
165.90
146.27
125.83
108.99
97.65
91.51
90.06
93.74
95.42
92.08
84.49
75.96
69.46
66.16
65.55
66.66
68.69
69.29
67.99
65.83
64.78
66.29
70.67
77.22
84.99
93.26
100.90
108.01
115.36
124.23
135.74
150.35
167.43
185.24
201.09
211.92
215.57
211.25
199.94
184.04
166.52
149.86
135.26
122.67
111.20
100.10
89.03
78.23
68.19
59.28
51.42
44.21
37.21
30.25
23.67
17.97
13.43
9.86
6.64
3.23
-0.39
-3.47
-4.83
-3.51
0.60
6.61
12.88
17.79
20.19
19.73
16.66
11.50
4.76
-2.98
-11.08
-18.74
-25.08
-29.48
-31.83
-32.60
-32.63
-32.73
-33.21
-33.83
-33.80
-32.32
-29.01
-24.11
-18.45
-12.95
-8.20
-4.18
-0.38
3.82
8.80
14.42
20.23
25.71
30.57
34.84
38.74
42.45
46.01
49.27
51.97
53.84
54.59
53.92
51.52
47.27
41.26
33.94
25.97
18.01
10.45
3.22
-4.07
-11.93
-20.65
-30.10
-39.65
-48.26
-54.84
-58.44
-58.58
-55.33
-49.24
-41.09
-31.64
-21.48
-10.96
-0.41
9.86
19.35
27.59
34.21
39.10
42.48
44.62
45.86
46.51
46.87
47.22
47.88
49.07
50.78
52.74
54.53
55.69
55.99
55.45
54.27
52.65
50.65
48.06
44.58
39.95
34.18
27.56
20.56
13.60
6.91
0.33
-6.48
-13.96
-22.36
-31.72
-41.79
-52.09
-61.95
-70.62
-77.26
-81.08
-81.49
-78.29
-71.73
-62.53
-51.67
-40.15
-28.77
-18.03
-8.13
0.90
9.05
16.22
22.24
26.87
29.99
31.61
31.95
31.33
30.09
28.53
26.82
25.06
23.42
22.18
21.72
22.41
24.39
27.38
30.59
32.90
33.24
31.00
26.15
19.27
11.27
2.99
-5.05
-12.57
-19.32
-24.91
-29.01
-31.60
-33.13
-34.24
-35.61
-37.63
-40.22
-42.80
-44.48
-44.24
-41.20
-34.74
-24.26
-9.73
8.19
28.29
49.20
69.80
89.24
106.76
121.34
132.57
139.45
140.53
134.31
120.39
100.45
78.23
58.73
46.73
47.55
62.95
90.12
121.80
148.90
164.11
164.18
150.64
128.83
109.44
101.74
110.71
135.25
169.84
207.50
241.76
267.72
282.35
289.54
294.21
300.57
309.98
321.89
335.40
349.90
365.13
352.35
295.14
194.94
73.01
-44.67
-142.29
-216.89
-272.56
-314.57
-346.64
-364.11
-367.41
-359.23
-345.19
-331.34
-321.11
-314.48
-309.37
-303.59
-292.56
-273.55
-246.99
-216.63
-187.53
-163.52
-146.22
-135.34
-129.40
-124.16
-116.33
-104.60
-90.52
-77.50
-68.72
-65.82
-68.57
-75.22
-82.28
-87.14
-88.80
-88.20
-87.31
-87.69
-89.85
-93.07
-95.95
-96.49
-92.96
-84.22
-69.84
-50.33
-27.51
-4.65
14.18
25.77
29.54
28.18
26.59
29.96
41.26
59.65
80.74
98.72
108.94
109.35
100.49
83.80
61.31
35.28
8.26
-16.96
-37.56
-51.53
-58.59
-60.59
-61.29
-63.70
-68.41
-73.47
-75.69
-72.06
-61.26
-44.22
-20.14
7.18
31.28
46.97
53.81
55.21
55.69
58.12
62.26
64.90
60.73
45.98
20.65
-11.16
-42.90
-67.65
-80.91
-82.30
-75.23
-65.26
-56.82
-51.84
-47.96
-43.85
-39.12
-34.39
-30.52
-27.64
-25.00
-21.19
-15.35
-7.72
0.04
6.31
10.26
12.06
12.28
11.11
9.32
7.06
4.86
4.16
7.07
14.67
25.75
37.18
45.76
49.99
50.47
49.20
47.84
46.62
44.06
38.37
27.82
12.67
-4.37
-19.34
-28.43
-29.35
-22.14
-8.84
7.42
23.89
37.13
44.94
46.70
43.22
36.40
28.61
22.76
21.45
25.69
34.28
44.22
51.10
50.83
41.30
23.05
-0.71
-25.66
-47.92
-64.84
-74.71
-76.61
-70.31
-54.40
-31.05
-5.13
17.07
29.90
30.35
19.04
-0.64
-23.99
-46.37
-64.23
-74.85
-76.44
-68.61
-52.81
-32.30
-11.23
6.69
19.40
26.38
28.46
26.56
21.12
12.48
1.85
-8.33
-14.90
-15.62
-10.66
-2.67
4.34
6.86
3.52
-4.62
-14.73
-23.67
-28.68
-27.62
-18.72
-0.84
25.47
56.96
88.02
112.21
125.08
126.04
118.25
106.72
95.47
85.74
76.42
65.88
54.33
44.35
39.29
40.58
45.91
49.69
45.95
31.53
7.99
-19.34
-44.04
-61.61
-71.24
-75.47
-78.23
-82.55
-88.85
-94.66
-95.76
-87.89
-68.71
-39.16
-3.46
31.93
60.38
77.06
79.88
69.13
46.81
15.88
-19.86
-55.66
-86.04
-105.84
-112.20
-106.06
-92.52
-78.68
-70.57
-70.67
-77.11
-84.67
-86.62
-77.50
-54.81
-20.76
19.03
57.11
86.30
101.58
101.75
90.21
73.32
58.22
48.70
45.15
45.08
44.66
40.50
30.86
16.50
-1.02
-20.02
-41.20
-65.35
-91.80
-118.14
-140.87
-156.93
-164.50
-164.86
-151.12
-122.93
-87.02
-53.65
-29.51
-14.30
-7.21
-2.43
2.43
6.60
5.97
-2.75
-17.59
-34.36
-47.29
-51.42
-43.84
-26.16
-3.12
18.29
33.11
40.50
42.98
44.37
47.10
51.78
56.57
59.72
60.73
61.98
67.59
80.46
100.32
123.13
143.47
155.93
157.71
148.98
132.68
112.72
92.03
72.18
51.73
31.95
15.59
4.87
-0.99
-4.99
-10.29
-19.60
-33.78
-51.83
-70.38
-85.53
-94.31
-95.59
-89.95
-78.98
-64.32
-46.90
-27.23
-5.92
15.04
32.47
43.24
45.72
40.33
29.01
14.25
-1.79
-17.33
-31.08
-41.90
-48.55
-50.13
-46.78
-40.21
-33.19
-28.56
-27.82
-30.68
-35.10
-38.15
-37.25
-31.30
-21.26
-9.75
-0.18
4.47
2.63
-5.49
-17.88
-31.27
-41.98
-46.89
-44.39
-34.88
-20.74
-5.45
7.65
16.81
22.64
27.90
36.15
49.98
69.67
92.98
115.93
134.22
144.49
145.13
136.31
119.19
95.70
68.13
39.27
12.23
-10.15
-26.03
-34.98
-37.99
-37.24
-34.89
-32.43
-29.98
-26.35
-19.92
-9.53
4.93
22.43
41.01
58.90
72.69
79.57
78.87
72.44
63.03
52.66
43.48
34.53
24.93
13.93
0.78
-15.59
-36.21
-61.46
-90.37
-119.91
-145.39
-161.33
-163.80
-151.86
-127.70
-95.99
-61.91
-30.08
-4.04
13.55
21.25
18.58
6.38
-12.67
-34.72
-53.00
-60.61
-54.47
-37.90
-18.18
-1.84
7.17
11.30
14.27
19.26
27.58
38.49
50.30
60.74
68.11
71.66
71.89
69.71
66.36
62.58
58.36
53.30
47.23
40.59
34.17
28.91
25.17
22.94
21.64
20.35
18.19
14.73
10.18
5.03
-0.10
-4.91
-9.20
-12.91
-16.06
-18.61
-20.49
-21.52
-21.76
-21.47
-21.11
-20.91
-20.69
-19.91
-18.09
-15.23
-12.10
-10.24
-11.41
-16.64
-25.56
-36.45
-46.92
-54.90
-59.35
-60.53
-59.68
-58.52
-58.72
-61.41
-66.97
-74.87
-83.22
-88.82
-87.71
-76.81
-55.63
-27.06
3.45
29.75
47.33
55.08
55.30
52.14
49.99
50.45
51.63
50.56
45.70
37.71
28.54
19.94
12.65
6.35
0.33
-5.66
-10.96
-14.77
-16.66
-16.73
-15.59
-13.89
-11.81
-9.07
-5.29
1.38
12.70
29.51
50.85
73.31
91.65
100.38
96.08
79.17
54.34
28.40
7.44
-5.64
-12.04
-15.42
-19.41
-25.53
-32.68
-38.19
-39.82
-37.04
-30.01
-20.43
-10.12
-0.23
8.73
16.57
22.75
26.07
25.25
19.62
9.56
-3.12
-15.69
-25.46
-30.72
-31.22
-28.14
-23.47
-19.23
-17.12
-17.92
-21.57
-27.41
-34.39
-41.39
-47.33
-51.21
-52.24
-50.08
-44.74
-36.76
-27.05
-16.81
-7.14
1.18
7.95
13.49
18.32
22.86
27.13
30.67
32.82
33.11
31.58
28.84
25.88
23.57
22.33
22.02
22.09
21.90
21.02
19.42
17.39
15.26
13.16
10.80
7.63
3.12
-2.79
-9.50
-15.88
-20.78
-23.60
-24.65
-25.02
-26.00
-28.39
-32.10
-36.23
-39.63
-41.58
-42.19
-42.20
-42.53
-43.66
-45.32
-46.64
-46.62
-44.65
-40.75
-35.45
-29.47
-23.35
-17.32
-11.40
-5.68
-0.45
3.89
7.06
9.24
11.09
13.56
17.40
22.90
29.64
36.72
43.10
47.96
50.92
52.02
51.68
50.44
48.85
47.30
45.97
44.76
43.32
41.21
38.10
33.89
28.77
23.15
17.48
12.06
7.02
2.35
-1.99
-6.02
-9.75
-13.24
-16.57
-19.77
-22.76
-25.33
-27.16
-27.97
-27.63
-26.14
-23.63
-20.20
-15.91
-10.83
-5.06
1.11
7.28
13.09
18.28
22.78
26.68
30.05
32.92
35.27
37.08
38.33
38.99
38.96
37.93
35.47
31.09
24.60
16.30
7.02
-2.08
-9.92
-15.85
-19.87
-22.51
-24.48
-26.31
-28.14
-29.89
-31.51
-33.20
-35.42
-38.59
-42.81
-47.64
-52.35
-56.24
-59.06
-61.05
-62.79
-64.69
-66.73
-68.28
-68.41
-66.36
-61.90
-55.44
-47.90
-40.19
-32.74
-25.31
-17.13
-7.42
4.16
17.18
30.64
43.37
54.53
63.86
71.60
78.15
83.69
88.12
91.14
92.52
92.35
91.04
89.19
87.27
85.52
83.87
82.03
79.69
76.67
73.03
68.97
64.73
60.44
56.07
51.45
46.39
40.92
35.21
29.54
24.13
18.98
13.87
8.47
2.56
-3.91
-10.80
-17.87
-24.91
-31.74
-38.15
-43.84
-48.40
-51.37
-52.41
-51.38
-48.34
-43.58
-37.48
-30.55
-23.33
-16.35
-10.00
-4.40
0.51
4.97
9.16
13.11
16.65
19.51
21.43
22.33
22.29
21.56
20.53
19.57
18.99
18.84
18.87
18.56
17.37
15.00
11.63
7.84
4.37
1.71
-0.12
-1.62
-3.56
-6.64
-11.11
-16.73
-22.77
-28.37
-32.76
-35.57
-36.87
-37.11
-36.89
-36.75
-37.04
-37.89
-39.35
-41.48
-44.37
-47.98
-51.87
-55.12
-56.51
-54.93
-49.93
-41.96
-32.34
-22.71
-14.40
-8.00
-3.35
0.17
3.12
6.01
9.57
14.86
23.02
34.36
47.37
58.64
63.98
60.47
48.39
31.64
16.20
7.29
6.92
13.27
22.12
29.44
33.39
34.70
35.59
37.66
40.59
42.34
40.56
34.34
24.99
15.45
8.72
6.85
9.65
14.79
18.87
18.87
13.56
3.80
-8.12
-19.64
-28.05
-31.88
-31.13
-27.15
-21.85
-16.78
-12.56
-8.95
-5.09
1.28
12.57
30.51
55.29
85.29
117.51
148.31
174.14
185.60
176.25
145.41
99.79
50.32
6.57
-26.79
-49.66
-64.32
-73.42
-77.88
-77.90
-73.93
-67.39
-60.54
-55.53
-53.58
-54.66
-57.47
-59.23
-57.21
-50.10
-38.86
-26.43
-16.37
-11.26
-11.77
-16.69
-23.25
-28.78
-31.60
-31.38
-28.67
-24.20
-18.39
-11.84
-5.42
-0.19
2.71
2.56
-0.42
-4.96
-9.07
-10.71
-8.76
-3.51
3.43
9.95
14.27
15.65
14.53
12.02
9.27
6.81
4.52
2.02
-0.94
-4.24
-7.40
-9.86
-11.40
-12.13
-12.55
-13.20
-14.45
-16.48
-19.53
-24.05
-29.65
-36.34
-44.10
-52.56
-60.96
-68.04
-72.59
-73.95
-72.21
-68.06
-62.57
-56.80
-51.42
-46.51
-41.26
-34.32
-24.34
-10.52
7.23
28.07
50.19
70.80
85.41
90.57
85.94
74.11
58.62
42.40
27.45
14.83
5.10
-1.61
-5.45
-7.11
-7.78
-8.76
-11.44
-15.92
-21.75
-28.16
-34.07
-37.92
-37.97
-32.94
-22.61
-8.18
8.05
23.12
34.51
40.97
42.83
41.03
36.89
31.55
25.88
20.69
16.90
15.48
17.15
21.97
29.10
36.91
43.49
47.27
47.57
44.57
39.20
32.81
26.85
22.68
21.45
23.70
29.20
36.94
45.29
52.45
56.93
57.94
55.67
51.09
45.78
41.39
39.10
39.12
40.50
41.15
38.69
31.46
19.74
6.07
-5.49
-11.01
-8.39
1.74
16.27
31.09
42.70
49.20
50.26
46.41
38.16
25.74
9.45
-10.02
-31.34
-52.82
-72.75
-89.73
-102.64
-110.84
-114.23
-113.46
-109.82
-104.74
-99.20
-93.15
-85.80
-76.23
-64.33
-51.17
-38.63
-28.50
-21.64
-17.72
-15.59
-13.96
-12.03
-9.60
-6.86
-4.03
-1.24
1.50
4.14
6.50
8.36
9.56
10.16
10.39
10.51
10.71
10.97
11.13
11.04
10.70
10.31
10.26
10.87
12.24
14.08
15.84
16.83
16.56
14.92
12.13
8.69
5.05
1.43
-2.27
-6.35
-11.13
-16.73
-22.89
-28.99
-34.26
-38.07
-40.20
-40.94
-40.95
-40.87
-41.02
-41.26
-41.06
-39.83
-37.27
-33.60
-29.54
-26.23
-24.82
-26.16
-30.43
-36.99
-44.41
-50.74
-54.05
-53.19
-48.33
-41.13
-34.08
-29.54
-28.62
-30.70
-33.61
-34.43
-30.48
-20.39
-4.66
13.99
31.09
41.68
42.05
31.71
14.14
-4.43
-17.66
-21.94
-17.56
-7.92
3.34
14.44
26.76
43.42
66.39
94.10
121.12
140.46
146.27
136.59
112.85
79.73
43.33
9.24
-18.86
-39.56
-52.78
-59.46
-60.41
-57.72
-53.36
-48.88
-45.36
-43.63
-44.35
-47.12
-51.21
-55.03
-58.62
-62.47
-67.24
-73.93
-83.76
-97.83
-115.56
-135.56
-143.50
-129.42
-92.68
-42.69
7.84
49.94
75.64
86.55
84.03
69.34
42.82
6.46
-32.58
-66.12
-87.42
-93.78
-86.29
-69.39
-47.22
-23.14
1.97
28.99
58.44
89.08
117.58
140.40
154.57
159.66
156.63
147.98
137.00
127.22
121.94
123.27
131.56
143.95
154.99
157.94
147.95
125.04
94.76
66.25
48.04
44.30
52.80
66.56
77.16
78.72
70.02
54.18
36.50
22.00
13.74
12.35
16.53
23.71
30.62
33.75
30.06
17.88
-2.47
-28.52
-56.49
-82.35
-102.84
-116.27
-122.50
-122.63
-118.55
-112.49
-106.53
-101.96
-98.65
-94.83
-87.83
-75.71
-59.15
-42.21
-31.12
-31.23
-43.76
-64.31
-84.25
-94.78
-91.26
-75.52
-54.77
-37.62
-29.83
-31.86
-39.56
-47.01
-49.65
-45.93
-36.96
-24.77
-10.74
4.81
21.90
39.66
55.61
66.05
67.56
58.91
42.24
22.84
7.26
0.70
4.79
16.99
31.80
43.25
47.20
42.51
30.93
16.00
1.63
-8.89
-13.89
-13.62
-10.21
-6.92
-6.87
-11.67
-20.73
-31.73
-41.92
-49.58
-54.51
-57.55
-59.45
-60.12
-58.83
-54.89
-48.35
-40.10
-31.39
-23.34
-16.80
-12.69
-12.18
-16.39
-25.77
-39.31
-54.46
-67.81
-76.33
-78.35
-73.73
-63.09
-46.87
-25.02
2.19
32.70
61.84
82.89
89.42
78.23
51.31
15.65
-19.12
-44.09
-53.78
-47.08
-26.54
3.08
35.98
65.96
87.04
94.61
86.96
66.47
39.46
14.19
-2.07
-5.70
2.41
17.74
34.51
47.89
55.33
56.76
53.75
48.51
43.09
38.97
37.02
37.60
40.62
45.58
51.31
56.01
57.64
54.71
47.37
37.80
29.83
27.35
32.46
44.19
58.62
70.61
76.12
74.04
66.39
57.01
49.56
45.86
45.49
46.39
46.10
42.73
35.46
24.54
10.95
-3.88
-18.39
-31.10
-40.90
-47.25
-50.26
-50.54
-49.05
-46.74
-44.40
-42.42
-40.74
-38.77
-35.67
-30.63
-23.35
-14.33
-4.77
3.81
9.97
12.85
12.34
9.07
4.20
-0.88
-4.95
-7.14
-7.18
-5.36
-2.37
0.99
3.93
5.87
6.44
5.52
3.25
0.13
-3.07
-5.42
-6.18
-5.09
-2.50
0.82
3.90
5.87
6.00
3.66
-1.64
-9.93
-20.36
-31.03
-39.44
-43.47
-42.53
-38.02
-32.90
-30.15
-31.20
-35.10
-39.14
-40.31
-37.03
-29.76
-20.64
-12.01
-5.24
-0.23
4.06
8.68
13.86
18.95
22.92
25.01
25.31
24.66
24.25
25.12
27.68
31.59
35.74
38.71
39.08
36.03
29.63
20.89
11.58
3.74
-1.02
-1.97
0.62
5.64
11.56
16.96
20.67
21.91
20.19
15.41
7.89
-1.42
-11.05
-19.24
-24.54
-26.25
-24.77
-21.40
-17.81
-15.47
-15.13
-16.77
-19.82
-23.42
-26.69
-28.95
-29.66
-28.45
-25.16
-19.87
-13.01
-5.29
2.38
9.08
14.01
16.69
16.92
14.84
10.85
5.65
0.28
-4.04
-6.08
-5.10
-1.05
5.29
12.60
19.63
25.66
30.70
35.18
39.38
43.12
45.69
46.36
44.80
41.24
36.07
29.40
20.86
9.97
-3.02
-16.57
-27.84
-33.74
-32.31
-23.87
-11.03
2.23
12.11
16.24
14.20
7.21
-2.59
-12.68
-20.75
-24.90
-24.04
-18.27
-8.99
1.27
9.65
13.95
13.40
8.89
2.56
-3.12
-6.24
-6.13
-3.54
-0.17
2.01
1.63
-1.46
-6.10
-10.21
-11.71
-9.47
-3.83
3.45
9.91
13.25
12.11
6.38
-3.09
-14.89
-27.50
-39.49
-49.65
-57.21
-61.95
-64.40
-65.67
-66.68
-67.36
-66.26
-61.09
-50.00
-32.76
-11.12
12.00
33.84
52.74
68.16
80.10
88.23
91.95
91.02
86.28
79.50
72.54
66.27
60.29
53.52
45.33
36.15
27.06
18.64
10.08
-0.63
-15.33
-34.17
-54.76
-72.88
-84.25
-86.25
-78.88
-64.34
-45.78
-25.95
-6.73
10.65
24.86
34.21
36.85
31.63
18.99
1.23
-18.10
-35.36
-47.84
-54.19
-54.33
-49.15
-40.31
-30.14
-21.34
-16.42
-16.76
-22.12
-30.79
-40.35
-48.70
-54.77
-58.43
-60.05
-60.00
-58.32
-54.49
-47.36
-35.15
-16.00
11.09
45.01
82.02
116.33
142.22
156.14
158.11
151.46
140.96
130.77
123.06
118.14
115.35
114.13
114.34
115.89
118.14
119.56
118.13
111.99
100.10
82.48
60.17
34.76
8.08
-18.06
-42.17
-63.15
-80.45
-93.98
-103.94
-110.45
-113.35
-112.21
-106.72
-97.13
-84.50
-70.63
-57.56
-46.95
-39.62
-35.46
-33.61
-33.01
-32.91
-33.14
-34.07
-36.20
-39.78
-44.43
-49.29
-53.28
-55.53
-55.62
-53.55
-49.48
-43.47
-35.42
-25.29
-13.39
-0.49
12.35
24.10
34.09
42.13
48.37
53.19
56.93
59.97
62.66
65.33
68.24
71.46
74.99
78.78
82.77
86.93
91.03
94.67
97.30
98.46
98.06
96.40
93.98
90.98
87.04
81.31
72.89
61.42
47.36
31.78
15.92
0.49
-14.36
-28.88
-43.30
-57.32
-70.20
-80.91
-88.62
-93.00
-94.10
-92.23
-87.60
-80.25
-70.07
-57.08
-41.58
-24.36
-6.49
10.84
26.65
40.34
51.75
60.96
68.03
72.71
74.61
73.50
69.68
64.04
57.78
51.72
45.81
38.88
29.37
16.13
-0.83
-20.21
-40.02
-58.43
-74.51
-88.40
-100.82
-112.35
-123.00
-132.20
-139.17
-143.53
-145.48
-145.82
-145.44
-144.92
-144.37
-143.51
-142.10
-140.18
-138.08
-136.25
-134.80
-133.26
-130.71
-126.17
-118.96
-109.03
-96.79
-82.99
-68.38
-53.67
-39.60
-26.98
-16.61
-8.98
-4.00
-1.02
0.88
2.42
3.76
4.57
4.46
3.55
2.75
3.37
6.42
11.84
18.22
23.28
24.92
22.17
15.64
7.14
-1.27
-8.23
-13.65
-18.55
-24.35
-32.32
-43.14
-56.78
-72.47
-88.58
-102.57
-111.30
-111.84
-102.71
-84.89
-62.07
-39.60
-22.59
-13.85
-12.80
-15.85
-18.23
-16.15
-8.30
4.02
18.12
31.52
43.06
52.99
62.22
71.30
80.03
87.61
93.46
97.86
101.95
107.24
114.71
124.25
134.63
144.02
150.67
153.50
152.29
147.52
140.05
130.79
120.50
109.76
98.89
88.13
77.61
67.44
57.65
48.13
38.52
28.28
16.80
3.69
-10.86
-26.10
-40.87
-54.08
-65.15
-74.24
-82.10
-89.85
-98.59
-109.08
-121.45
-134.88
-147.55
-157.00
-160.97
-158.26
-149.47
-136.89
-123.58
-112.22
-103.97
-98.14
-92.57
-84.59
-72.19
-54.80
-33.67
-11.56
8.05
22.12
29.05
29.20
24.52
17.50
10.07
3.10
-3.51
-9.96
-15.82
-19.74
-19.85
-14.65
-3.83
11.33
28.35
44.47
57.69
67.51
74.82
81.12
87.52
93.93
99.15
101.67
100.79
97.20
92.63
88.89
86.78
85.88
84.98
83.17
80.43
77.70
76.13
76.26
77.66
79.10
79.33
77.67
74.16
69.17
62.86
54.92
44.89
32.81
19.75
7.96
0.06
-2.13
1.31
8.18
14.92
18.08
15.57
7.31
-5.08
-19.27
-33.36
-46.34
-58.09
-68.72
-78.11
-85.68
-90.64
-92.40
-90.96
-86.95
-81.41
-75.44
-69.82
-65.00
-61.13
-58.09
-55.49
-52.77
-49.36
-44.89
-39.44
-33.50
-28.13
-24.80
-24.67
-27.89
-33.24
-38.30
-40.20
-36.45
-25.75
-8.78
11.59
31.46
47.11
55.98
56.80
49.60
35.94
19.35
4.69
-3.32
-1.35
11.29
32.13
56.09
76.59
86.87
84.45
72.99
59.01
47.70
40.95
38.68
40.42
46.04
55.26
66.91
79.87
90.26
94.45
90.89
80.81
67.13
52.98
40.67
31.43
25.36
21.54
18.95
15.55
10.21
2.19
-8.59
-21.03
-32.59
-40.11
-41.33
-35.73
-25.18
-12.94
-2.57
3.69
5.54
4.46
2.54
1.70
3.26
7.54
13.82
20.47
25.45
26.78
23.17
14.25
1.22
-13.32
-26.14
-34.14
-35.11
-28.22
-14.38
4.34
22.77
35.06
38.11
32.86
22.66
10.84
-0.43
-10.22
-18.38
-25.04
-30.09
-33.45
-35.51
-37.12
-39.11
-41.84
-45.06
-48.12
-50.53
-51.77
-51.80
-50.98
-49.75
-48.16
-45.68
-41.70
-35.91
-28.92
-20.63
-10.80
1.06
15.49
32.16
49.23
62.93
68.98
64.97
51.92
33.99
16.49
3.63
-2.84
-2.96
2.48
13.63
31.38
55.40
81.92
103.38
111.40
100.82
72.78
33.84
-6.88
-41.72
-65.94
-77.64
-79.11
-74.38
-68.01
-58.42
-42.16
-17.32
15.49
51.57
84.26
107.38
117.87
116.79
108.37
97.04
85.71
75.05
63.92
50.68
34.38
15.77
-2.96
-19.05
-30.99
-38.83
-43.75
-47.32
-50.49
-53.34
-55.03
-54.39
-50.58
-44.03
-36.13
-28.65
-23.02
-19.87
-18.94
-19.38
-20.13
-20.42
-20.12
-19.61
-19.38
-19.62
-20.16
-20.51
-20.20
-18.98
-16.97
-14.62
-12.47
-10.92
-10.06
-9.81
-9.95
-10.33
-10.84
-11.45
-12.07
-12.58
-12.83
-12.77
-12.49
-12.24
-12.38
-13.20
-14.89
-17.41
-20.59
-24.15
-27.70
-30.85
-33.22
-34.46
-34.32
-32.76
-29.94
-26.29
-22.33
-18.54
-15.22
-12.37
-9.76
-7.06
-4.07
-0.77
2.55
5.42
7.46
8.49
8.67
8.46
8.46
9.16
10.81
13.34
16.37
19.38
21.92
23.66
24.59
24.86
24.75
24.46
24.05
23.40
22.32
20.65
18.35
15.56
12.51
9.38
6.32
3.36
0.51
-2.18
-4.66
-6.92
-9.11
-11.51
-14.43
-17.99
-21.83
-25.29
-27.49
-27.81
-26.18
-23.06
-19.25
-15.47
-12.11
-9.17
-6.42
-3.65
-0.81
2.06
4.93
7.77
10.65
13.43
15.79
17.26
17.42
16.07
13.37
9.74
5.71
1.68
-2.09
-5.48
-8.38
-10.60
-11.88
-11.96
-10.82
-8.89
-6.92
-5.81
-6.28
-8.53
-12.09
-16.15
-19.79
-22.52
-24.32
-25.49
-26.41
-27.24
-27.93
-28.43
-28.82
-29.45
-30.53
-31.97
-33.12
-32.91
-30.37
-25.09
-17.43
-8.54
0.24
7.92
14.17
19.37
24.18
29.07
34.03
38.45
41.52
42.68
41.98
40.08
38.00
36.62
36.35
36.99
37.87
38.26
37.62
35.72
32.57
28.32
23.24
17.69
12.22
7.42
3.69
1.00
-1.18
-3.74
-7.43
-12.57
-18.88
-25.61
-32.01
-37.67
-42.64
-47.28
-51.90
-56.61
-61.20
-65.29
-68.62
-71.07
-72.58
-72.99
-71.89
-68.64
-62.76
-54.26
-43.75
-32.38
-21.31
-11.33
-2.61
5.04
11.79
17.47
21.58
23.58
23.43
21.79
19.86
18.93
19.83
22.59
26.55
30.69
34.02
35.84
35.93
34.51
32.13
29.51
27.32
26.01
25.87
27.00
29.54
33.59
39.01
45.25
51.36
56.24
59.29
60.69
61.28
61.84
62.30
61.49
57.62
49.44
37.20
22.93
9.65
0.12
-4.36
-4.25
-1.23
2.86
6.81
10.31
13.57
16.76
19.68
21.76
22.42
21.43
19.15
16.35
13.88
12.28
11.61
11.49
11.38
10.86
9.84
8.49
7.10
5.90
4.93
4.07
3.10
1.76
-0.15
-2.73
-5.92
-9.52
-13.20
-16.64
-19.62
-22.15
-24.48
-26.97
-29.99
-33.70
-38.01
-42.67
-47.31
-51.59
-55.12
-57.53
-58.34
-57.11
-53.56
-47.72
-40.01
-31.12
-21.83
-12.74
-4.18
3.80
11.19
17.92
23.70
28.16
30.97
32.12
31.89
30.80
29.42
28.12
27.04
26.13
25.25
24.36
23.47
22.64
21.88
21.07
19.96
18.30
15.95
12.92
9.45
5.89
2.54
-0.44
-3.10
-5.66
-8.41
-11.54
-15.09
-18.96
-22.90
-26.71
-30.29
-33.63
-36.81
-39.85
-42.57
-44.65
-45.58
-44.93
-42.43
-38.15
-32.35
-25.44
-17.79
-9.70
-1.47
6.53
13.88
20.18
25.22
28.99
31.67
33.40
34.15
33.81
32.31
29.78
26.66
23.58
21.15
19.70
19.29
19.66
20.46
21.27
21.69
21.28
19.67
16.58
11.96
6.06
-0.60
-7.34
-13.58
-18.88
-23.10
-26.37
-28.97
-31.26
-33.53
-35.98
-38.71
-41.69
-44.73
-47.52
-49.62
-50.55
-49.86
-47.34
-43.04
-37.28
-30.50
-23.23
-15.90
-8.82
-2.22
3.71
8.78
12.74
15.42
16.72
16.75
15.83
14.35
12.70
11.19
9.93
8.97
8.28
7.84
7.63
7.55
7.38
6.90
5.91
4.41
2.58
0.68
-1.10
-2.63
-3.75
-4.00
-2.54
1.66
9.42
20.84
35.11
50.73
66.05
79.78
91.23
100.04
105.82
108.00
105.93
99.49
89.62
78.49
69.10
64.30
65.80
73.40
85.10
97.68
107.85
113.36
113.52
109.14
101.90
93.43
84.74
76.04
67.03
57.28
46.64
35.20
23.18
10.81
-1.41
-12.34
-19.95
-21.77
-16.06
-3.10
14.04
30.19
39.89
39.59
29.08
11.37
-8.95
-27.77
-42.94
-54.47
-63.66
-71.79
-79.35
-86.03
-91.21
-94.56
-96.23
-96.76
-96.77
-96.68
-96.50
-95.96
-94.59
-91.98
-88.07
-83.19
-78.00
-73.23
-69.29
-66.23
-63.65
-61.09
-58.26
-55.25
-52.42
-50.23
-48.84
-48.01
-47.16
-45.51
-42.56
-38.44
-33.93
-30.07
-27.65
-26.73
-26.47
-25.65
-23.01
-18.13
-11.74
-5.65
-1.81
-1.22
-3.16
-4.84
-2.63
7.47
27.88
58.61
96.66
136.98
173.96
202.80
220.64
226.14
220.11
204.91
184.54
163.71
147.40
139.54
141.56
151.79
160.20
155.98
131.59
87.52
31.59
-25.51
-74.73
-115.25
-148.56
-176.53
-199.57
-217.33
-226.83
-227.24
-219.93
-207.89
-194.65
-182.56
-172.80
-164.80
-157.17
-148.41
-138.21
-127.24
-116.68
-107.73
-100.60
-94.98
-89.81
-83.86
-76.17
-66.79
-56.56
-46.76
-38.61
-32.54
-28.39
-25.39
-22.68
-19.57
-16.02
-12.33
-8.85
-5.63
-2.29
1.78
7.14
14.12
22.69
32.42
42.63
52.60
61.62
69.20
74.95
78.58
79.96
79.09
76.14
71.53
65.89
60.03
54.71
50.42
47.27
45.02
43.21
41.40
39.34
37.03
34.63
32.31
30.13
28.02
25.80
23.34
20.66
17.91
15.37
13.22
11.45
9.86
8.14
6.00
3.31
0.18
-3.07
-6.02
-8.15
-8.96
-8.01
-5.02
0.02
6.78
14.68
22.96
30.89
37.91
43.69
48.00
50.78
51.98
51.60
49.77
46.76
42.97
38.88
34.93
31.47
28.62
26.36
24.48
22.67
20.66
18.24
15.35
12.05
8.38
4.44
0.30
-3.90
-7.87
-11.34
-14.05
-15.91
-17.12
-18.08
-19.22
-20.87
-23.06
-25.58
-28.10
-30.27
-31.85
-32.60
-32.28
-30.54
-27.10
-21.80
-14.77
-6.47
2.35
10.93
18.64
25.10
30.19
33.93
36.33
37.44
37.24
35.82
33.44
30.48
27.41
24.63
22.26
20.17
17.96
15.21
11.70
7.56
3.23
-0.70
-3.79
-5.94
-7.53
-9.11
-11.20
-13.98
-17.25
-20.56
-23.53
-25.97
-27.95
-29.75
-31.57
-33.55
-35.69
-37.94
-40.26
-42.49
-44.41
-45.60
-45.57
-43.94
-40.57
-35.63
-29.55
-22.75
-15.63
-8.46
-1.48
4.99
10.58
14.90
17.69
18.94
18.89
17.96
16.64
15.32
14.31
13.70
13.54
13.82
14.51
15.53
16.71
17.76
18.31
18.03
16.82
14.88
12.63
10.49
8.70
7.13
5.42
3.21
0.34
-2.99
-6.39
-9.48
-12.19
-14.73
-17.50
-20.85
-24.81
-29.00
-32.72
-35.11
-35.39
-33.12
-28.30
-21.38
-13.17
-4.56
3.71
11.20
17.80
23.57
28.61
32.90
36.30
38.64
39.77
39.67
38.45
36.31
33.52
30.40
27.35
24.79
23.07
22.33
22.43
23.00
23.52
23.56
22.85
21.41
19.41
17.05
14.40
11.32
7.52
2.70
-3.18
-9.78
-16.38
-22.00
-25.85
-27.58
-27.52
-26.56
-25.78
-25.92
-27.13
-28.94
-30.54
-31.25
-30.78
-29.19
-26.76
-23.60
-19.62
-14.63
-8.59
-1.88
4.80
10.62
14.95
17.62
18.93
19.40
19.55
19.65
19.68
19.48
18.86
17.76
16.34
14.84
13.48
12.35
11.33
10.18
8.66
6.68
4.25
1.55
-1.26
-4.10
-6.96
-9.93
-13.05
-16.29
-19.49
-22.45
-25.08
-27.44
-29.75
-32.30
-35.31
-38.78
-42.45
-45.83
-48.27
-49.16
-47.99
-44.55
-38.94
-31.61
-23.26
-14.73
-6.73
0.25
6.06
10.86
14.89
18.37
21.27
23.44
24.70
24.96
24.31
23.04
21.47
19.86
18.36
16.99
15.69
14.42
13.16
11.93
10.72
9.52
8.21
6.63
4.64
2.16
-0.78
-3.99
-7.18
-10.09
-12.61
-14.81
-16.92
-19.14
-21.53
-24.01
-26.42
-28.69
-30.96
-33.47
-36.31
-39.29
-41.80
-43.00
-42.15
-38.85
-33.24
-25.93
-17.71
-9.37
-1.53
5.44
11.34
16.16
19.96
22.87
25.03
26.54
27.43
27.69
27.32
26.39
25.02
23.36
21.59
19.87
18.38
17.23
16.52
16.25
16.30
16.39
16.22
15.51
14.09
12.02
9.44
6.56
3.55
0.44
-2.83
-6.28
-9.86
-13.39
-16.64
-19.42
-21.68
-23.61
-25.51
-27.76
-30.61
-34.08
-37.88
-41.45
-44.03
-44.94
-43.70
-40.16
-34.60
-27.52
-19.62
-11.49
-3.64
3.64
10.14
15.76
20.40
24.02
26.59
28.16
28.84
28.80
28.20
27.23
26.09
24.96
23.97
23.20
22.65
22.22
21.75
21.03
19.93
18.35
16.32
13.93
11.36
8.75
6.19
3.70
1.17
-1.51
-4.46
-7.65
-10.92
-14.04
-16.78
-19.03
-20.82
-22.36
-23.88
-25.59
-27.55
-29.67
-31.70
-33.21
-33.74
-32.82
-30.15
-25.64
-19.48
-12.13
-4.21
3.60
10.70
16.65
21.22
24.35
26.14
26.75
26.34
25.06
23.07
20.60
17.97
15.53
13.64
12.46
11.95
11.87
11.89
11.76
11.36
10.69
9.80
8.72
7.40
5.73
3.61
1.03
-1.98
-5.27
-8.65
-11.96
-15.04
-17.83
-20.33
-22.64
-24.87
-27.19
-29.71
-32.48
-35.42
-38.33
-40.80
-42.29
-42.22
-40.06
-35.61
-29.05
-20.95
-12.17
-3.58
4.15
10.67
16.00
20.27
23.67
26.24
27.89
28.49
28.06
26.76
24.99
23.24
21.91
21.21
21.15
21.56
22.16
22.67
22.89
22.66
21.94
20.74
19.16
17.28
15.07
12.39
9.01
4.69
-0.66
-6.84
-13.38
-19.60
-24.84
-28.59
-30.69
-31.41
-31.36
-31.42
-32.37
-34.76
-38.57
-43.25
-47.80
-51.08
-52.11
-50.35
-45.77
-38.78
-30.08
-20.48
-10.74
-1.49
6.86
14.08
20.09
24.91
28.56
31.05
32.40
32.69
32.10
30.91
29.47
28.07
26.87
25.87
24.95
23.99
22.94
21.80
20.57
19.21
17.53
15.30
12.31
8.50
3.97
-1.03
-6.18
-11.27
-16.17
-20.87
-25.41
-29.85
-34.22
-38.53
-42.84
-47.24
-51.89
-56.95
-62.45
-68.20
-73.67
-78.03
-80.29
-79.61
-75.58
-68.38
-58.70
-47.62
-36.32
-25.89
-17.17
-10.73
-6.79
-5.28
-5.85
-7.98
-11.02
-14.35
-17.35
-19.41
-19.97
-18.66
-15.41
-10.59
-4.94
0.59
5.11
8.03
9.21
8.94
7.89
7.01
7.29
9.59
14.29
21.13
29.19
37.15
43.59
47.47
48.30
46.18
41.68
35.62
28.83
22.02
15.67
10.00
5.17
1.36
-0.97
-1.17
1.39
7.08
15.60
26.09
37.27
47.91
57.09
64.39
69.72
73.09
74.45
73.72
70.94
66.45
60.85
54.93
49.33
44.45
40.31
36.74
33.54
30.58
27.90
25.63
23.79
22.33
21.09
19.82
18.33
16.46
14.09
11.09
7.42
3.19
-1.40
-5.98
-10.19
-13.74
-16.61
-18.95
-21.06
-23.26
-25.77
-28.71
-32.06
-35.68
-39.30
-42.44
-44.42
-44.51
-42.04
-36.75
-28.91
-19.38
-9.35
0.05
8.07
14.48
19.49
23.44
26.44
28.33
28.77
27.50
24.62
20.60
16.22
12.21
9.03
6.72
4.95
3.22
1.06
-1.79
-5.25
-9.00
-12.68
-16.06
-19.20
-22.46
-26.30
-31.06
-36.74
-43.00
-49.35
-55.35
-60.76
-65.58
-69.93
-73.93
-77.72
-81.45
-85.35
-89.55
-93.95
-98.02
-100.71
-100.76
-97.08
-89.15
-77.31
-62.61
-46.47
-30.24
-14.85
-0.61
12.61
25.18
37.38
49.24
60.49
70.64
79.20
85.87
90.70
94.05
96.44
98.36
100.10
101.69
103.02
103.98
104.55
104.82
104.78
104.15
102.40
98.88
93.18
85.38
76.08
66.23
56.67
47.80
39.56
31.54
23.30
14.63
5.61
-3.60
-12.85
-22.15
-31.48
-40.62
-48.96
-55.51
-59.25
-59.48
-56.15
-49.92
-41.90
-33.31
-25.03
-17.36
-10.05
-2.60
5.41
14.03
22.82
30.99
37.68
42.27
44.52
44.63
43.03
40.26
36.79
33.00
29.26
26.00
23.69
22.72
23.17
24.69
26.50
27.63
27.24
25.01
21.17
16.39
11.41
6.71
2.35
-1.94
-6.56
-11.75
-17.49
-23.59
-29.85
-36.14
-42.43
-48.57
-54.12
-58.30
-60.15
-58.82
-53.96
-45.89
-35.64
-24.54
-13.90
-4.64
2.85
8.63
13.04
16.41
19.00
20.93
22.25
23.05
23.40
23.42
23.23
22.93
22.60
22.35
22.28
22.47
22.87
23.34
23.59
23.33
22.41
20.82
18.70
16.24
13.55
10.63
7.49
4.24
1.05
-1.88
-4.48
-6.83
-9.21
-11.92
-15.13
-18.84
-22.94
-27.27
-31.69
-36.00
-39.86
-42.76
-44.07
-43.29
-40.17
-34.87
-27.93
-20.02
-11.91
-4.18
2.77
8.69
13.51
17.17
19.67
21.09
21.59
21.40
20.84
20.15
19.53
19.06
18.70
18.39
18.04
17.51
16.70
15.54
14.07
12.41
10.71
9.07
7.45
5.66
3.52
0.92
-2.12
-5.40
-8.73
-11.95
-15.00
-17.92
-20.81
-23.81
-27.09
-30.73
-34.70
-38.65
-42.06
-44.18
-44.36
-42.25
-37.92
-31.82
-24.57
-16.82
-9.02
-1.46
5.59
11.87
17.02
20.70
22.75
23.27
22.59
21.20
19.60
18.12
16.96
16.14
15.56
15.11
14.72
14.31
13.89
13.47
13.05
12.54
11.80
10.64
8.87
6.37
3.15
-0.62
-4.65
-8.63
-12.29
-15.51
-18.33
-21.03
-23.94
-27.46
-31.81
-37.01
-42.69
-48.15
-52.46
-54.68
-54.17
-50.76
-44.76
-36.90
-27.99
-18.82
-9.87
-1.49
6.13
12.82
18.47
22.93
26.15
28.22
29.26
29.51
29.17
28.45
27.51
26.48
25.40
24.37
23.48
22.79
22.35
22.05
21.71
21.02
19.71
17.68
14.98
11.82
8.44
4.96
1.46
-2.11
-5.77
-9.45
-13.04
-16.49
-19.84
-23.31
-27.17
-31.62
-36.63
-41.83
-46.46
-49.63
-50.45
-48.40
-43.47
-36.16
-27.40
-18.18
-9.28
-1.07
6.56
13.94
21.30
28.53
35.03
39.94
42.55
42.69
41.00
38.73
37.29
37.68
40.00
43.39
46.38
47.59
46.49
43.63
40.53
38.95
40.07
43.83
48.78
52.61
53.07
48.86
40.03
28.00
15.29
4.98
0.07
2.66
13.16
29.73
48.35
63.42
69.48
63.38
45.48
19.41
-9.76
-37.77
-63.02
-86.81
-112.35
-141.96
-174.30
-203.43
-220.45
-217.35
-190.84
-144.50
-87.85
-33.54
7.33
28.84
31.51
20.41
1.48
-20.83
-44.24
-63.50
-72.25
-65.68
-43.61
-10.12
28.95
67.55
100.68
125.19
140.55
147.80
149.08
146.65
142.77
139.19
136.27
134.17
131.17
126.09
118.21
107.54
93.94
78.46
63.35
50.82
42.42
38.32
37.85
39.42
41.17
39.34
31.42
20.64
10.42
3.42
0.19
-0.46
-0.91
-3.67
-13.76
-33.52
-60.72
-90.35
-117.60
-140.35
-159.01
-175.75
-193.50
-219.67
-259.74
-314.32
-379.14
-447.44
-511.79
-564.54
-599.52
-586.15
-513.71
-399.10
-277.17
-176.80
-108.31
-67.31
-43.27
-27.36
-15.08
-9.71
-14.02
-27.21
-41.56
-49.34
-46.48
-32.13
-8.58
20.53
48.40
70.91
89.04
108.40
136.09
172.45
217.72
271.20
331.20
392.44
448.33
492.21
518.47
522.69
503.12
462.97
409.52
352.42
300.25
259.44
233.14
220.60
217.15
215.66
209.68
194.67
169.23
134.88
95.76
57.11
23.41
-2.80
-21.26
-33.35
-42.24
-52.14
-66.67
-86.98
-110.96
-133.77
-149.42
-152.90
-142.17
-119.53
-92.19
-70.44
-62.28
-68.99
-85.65
-105.30
-122.61
-134.88
-141.06
-140.67
-134.06
-120.07
-98.38
-71.15
-42.75
-18.11
-0.94
7.37
7.52
1.68
-8.32
-20.58
-34.16
-48.59
-62.98
-75.46
-83.51
-85.11
-79.49
-67.26
-50.17
-30.48
-9.98
10.58
31.53
53.29
75.24
95.40
110.80
118.46
116.39
104.64
85.50
63.03
41.85
25.67
16.23
12.84
13.18
14.57
15.21
14.33
12.37
10.17
8.29
6.77
4.71
1.50
-2.23
-4.68
-4.35
-0.17
7.97
19.29
32.77
46.36
58.30
67.79
74.42
76.65
73.09
63.38
48.80
32.70
17.08
2.96
-9.60
-21.69
-36.20
-54.96
-77.33
-100.22
-118.74
-131.14
-137.87
-140.53
-130.48
-102.31
-56.92
-2.17
45.25
84.31
116.01
139.99
156.56
163.64
157.58
136.21
100.83
57.22
15.72
-14.41
-26.40
-18.15
6.29
37.14
63.43
77.54
77.72
68.09
53.29
36.70
19.34
-0.05
-23.72
-52.57
-84.94
-117.21
-144.75
-164.56
-174.86
-174.73
-164.31
-145.46
-122.03
-99.69
-84.81
-82.34
-94.49
-119.27
-150.76
-181.32
-204.31
-216.20
-216.96
-208.97
-195.09
-177.24
-156.08
-131.67
-104.86
-78.12
-55.11
-39.21
-31.76
-31.28
-34.00
-35.70
-33.62
-27.49
-19.29
-11.86
-7.21
-5.70
-6.00
-6.11
-4.45
-0.60
4.72
10.06
13.95
15.28
13.31
7.38
-3.12
-18.55
-38.48
-61.13
-83.45
-101.71
-112.66
-114.70
-108.13
-94.84
-77.28
-57.28
-35.55
-11.73
15.02
45.30
78.74
113.67
147.16
175.31
194.17
200.66
193.52
173.79
144.59
110.26
75.36
43.72
17.90
-0.94
-12.86
-18.90
-20.74
-20.35
-19.63
-19.89
-21.59
-24.14
-26.07
-25.41
-20.40
-10.10
5.25
24.18
44.60
64.38
82.04
96.99
109.37
119.58
127.82
133.85
137.13
137.19
133.85
127.52
119.02
109.40
99.72
90.84
83.38
77.63
73.41
69.89
65.72
59.19
48.89
34.20
15.69
-4.93
-25.27
-42.82
-55.60
-62.49
-63.34
-58.88
-50.44
-39.71
-28.40
-17.94
-9.26
-2.76
1.68
4.50
6.21
7.25
7.93
8.36
8.52
8.36
7.85
7.10
6.30
5.70
5.40
5.35
5.36
5.21
4.90
4.57
4.53
5.02
6.07
7.42
8.71
9.58
9.96
9.99
9.97
10.14
10.51
10.88
10.90
10.22
8.62
6.02
2.44
-1.98
-7.08
-12.60
-18.27
-23.78
-28.87
-33.42
-37.48
-41.25
-45.02
-48.91
-52.80
-56.24
-58.59
-59.27
-57.90
-54.52
-49.40
-42.97
-35.58
-27.48
-18.88
-10.09
-1.58
6.06
12.30
16.85
19.75
21.34
22.14
22.70
23.42
24.47
25.77
27.05
28.04
28.56
28.65
28.44
28.06
27.49
26.55
24.97
22.54
19.22
15.17
10.64
5.90
1.12
-3.59
-8.15
-12.51
-16.60
-20.47
-24.28
-28.31
-32.81
-37.82
-43.04
-47.82
-51.41
-53.10
-52.53
-49.68
-44.82
-38.30
-30.43
-21.53
-11.95
-2.14
7.30
15.73
22.66
27.86
31.39
33.59
34.87
35.60
36.03
36.23
36.16
35.72
34.88
33.71
32.40
31.05
29.62
27.95
25.76
22.85
19.17
14.92
10.39
5.83
1.34
-3.11
-7.67
-12.39
-17.19
-21.85
-26.17
-30.12
-33.85
-37.67
-41.80
-46.20
-50.49
-54.04
-56.19
-56.38
-54.25
-49.56
-42.21
-32.31
-20.28
-6.97
6.48
18.81
29.05
36.74
41.91
45.00
46.50
46.87
46.51
45.77
45.03
44.62
44.72
45.25
45.86
46.11
45.55
43.94
41.25
37.71
33.69
29.52
25.41
21.37
17.29
13.03
8.54
3.88
-0.83
-5.51
-10.13
-14.74
-19.36
-24.00
-28.72
-33.62
-38.82
-44.35
-49.94
-54.92
-58.38
-59.46
-57.61
-52.85
-45.66
-36.74
-26.73
-16.07
-5.02
6.09
16.79
26.38
34.20
39.74
42.92
44.09
43.92
43.20
42.59
42.44
42.77
43.33
43.78
43.86
43.44
42.53
41.17
39.32
36.87
33.67
29.66
24.97
19.92
14.92
10.26
6.05
2.16
-1.64
-5.55
-9.59
-13.62
-17.40
-20.71
-23.44
-25.57
-27.11
-27.98
-28.06
-27.20
-25.36
-22.61
-19.14
-15.17
-10.78
-5.97
-0.70
4.99
10.86
16.49
21.34
24.96
27.11
27.94
27.91
27.77
28.33
30.31
34.07
39.54
46.22
53.26
59.69
64.67
67.57
68.01
65.84
61.10
54.13
45.61
36.55
28.10
21.21
16.35
13.30
11.33
9.54
7.17
3.84
-0.41
-5.37
-10.80
-16.51
-22.34
-28.04
-33.35
-38.04
-42.13
-45.96
-49.98
-54.57
-59.59
-64.33
-67.59
-68.19
-65.37
-59.20
-50.62
-41.00
-31.67
-23.40
-16.26
-9.78
-3.37
3.30
10.03
16.23
21.28
24.76
26.67
27.38
27.33
26.88
26.20
25.35
24.43
23.63
23.12
22.89
22.67
21.93
20.17
17.11
12.83
7.68
2.08
-3.65
-9.46
-15.38
-21.48
-27.69
-33.76
-39.44
-44.50
-48.85
-52.59
-55.93
-59.06
-62.07
-64.79
-66.73
-67.04
-64.65
-58.59
-48.33
-34.10
-16.89
1.75
20.06
36.46
49.74
59.08
64.09
64.89
62.24
57.52
52.48
48.69
47.02
47.34
48.82
50.41
51.47
51.99
52.38
53.05
54.00
54.72
54.50
52.66
48.78
42.71
34.50
24.32
12.57
-0.04
-12.53
-23.79
-32.97
-39.67
-44.03
-46.58
-48.08
-49.21
-50.50
-52.15
-54.02
-55.69
-56.43
-55.46
-52.17
-46.31
-38.17
-28.45
-18.04
-7.79
1.71
10.19
17.55
23.76
28.71
32.26
34.35
35.01
34.51
33.25
31.71
30.33
29.38
28.96
28.92
28.94
28.64
27.66
25.77
22.92
19.25
15.01
10.52
5.99
1.51
-2.92
-7.36
-11.85
-16.43
-21.01
-25.48
-29.72
-33.64
-37.29
-40.84
-44.54
-48.69
-53.39
-58.48
-63.43
-67.32
-69.09
-67.81
-63.02
-54.86
-44.13
-32.01
-19.72
-8.27
1.78
10.30
17.38
23.20
27.85
31.32
33.54
34.48
34.25
32.99
30.89
28.13
24.93
21.68
18.96
17.45
17.67
19.69
22.95
26.34
28.45
28.11
24.60
17.84
8.30
-3.21
-15.68
-28.00
-39.00
-47.64
-53.12
-55.03
-53.49
-48.98
-42.33
-34.53
-26.68
-19.95
-15.33
-13.40
-14.06
-16.41
-19.02
-20.36
-19.40
-15.95
-10.63
-4.52
1.37
6.51
10.99
15.24
19.69
24.38
28.91
32.58
34.79
35.30
34.33
32.42
30.15
27.87
25.68
23.51
21.37
19.39
17.78
16.59
15.67
14.56
12.73
9.83
5.90
1.35
-3.19
-7.16
-10.36
-12.96
-15.37
-17.95
-20.73
-23.38
-25.34
-26.19
-25.89
-24.86
-23.81
-23.46
-24.29
-26.41
-29.64
-33.48
-37.24
-40.02
-40.89
-39.07
-34.21
-26.60
-17.12
-6.97
2.73
11.22
18.24
23.86
28.24
31.42
33.27
33.64
32.55
30.36
27.67
25.14
23.26
22.18
21.74
21.70
21.87
22.26
22.97
24.01
25.18
25.99
25.89
24.41
21.42
17.13
11.97
6.41
0.78
-4.75
-10.13
-15.30
-20.09
-24.29
-27.70
-30.26
-32.11
-33.54
-34.93
-36.61
-38.81
-41.57
-44.78
-48.15
-51.12
-52.81
-52.24
-48.59
-41.62
-31.93
-20.89
-10.24
-1.47
4.67
8.36
10.38
11.75
13.22
15.12
17.41
19.90
22.45
25.04
27.75
30.58
33.50
36.34
38.87
40.87
42.16
42.69
42.53
41.79
40.53
38.63
35.89
32.11
27.38
22.06
16.88
12.59
9.63
7.93
6.88
5.53
3.01
-1.25
-7.28
-14.67
-22.74
-30.79
-38.26
-44.92
-50.76
-56.08
-61.23
-66.39
-71.27
-74.94
-75.97
-72.81
-64.38
-50.59
-32.49
-12.13
8.05
25.76
39.29
47.72
50.97
49.62
44.77
37.89
30.58
24.32
20.17
18.55
19.28
21.66
24.75
27.68
29.79
30.77
30.65
29.68
28.20
26.53
24.78
22.90
20.73
18.01
14.58
10.38
5.49
0.15
-5.30
-10.47
-14.98
-18.56
-21.14
-22.80
-23.70
-23.97
-23.66
-22.69
-21.02
-18.79
-16.44
-14.63
-14.04
-15.03
-17.43
-20.52
-23.23
-24.47
-23.58
-20.50
-15.73
-10.08
-4.35
0.97
5.69
9.74
13.02
15.21
16.00
15.32
13.55
11.44
9.90
9.54
10.42
12.02
13.57
14.38
14.18
13.14
11.65
10.08
8.53
6.89
4.88
2.38
-0.57
-3.73
-6.78
-9.50
-11.84
-13.88
-15.78
-17.63
-19.43
-21.10
-22.51
-23.63
-24.53
-25.32
-26.09
-26.90
-27.72
-28.51
-29.24
-29.89
-30.42
-30.62
-30.20
-28.71
-25.83
-21.46
-15.81
-9.31
-2.50
4.19
10.46
16.07
20.79
24.37
26.67
27.75
27.94
27.78
27.80
28.39
29.63
31.37
33.33
35.23
36.90
38.30
39.47
40.44
41.21
41.73
41.92
41.81
41.49
41.18
41.11
41.43
42.16
43.11
44.08
44.95
45.84
47.03
48.92
51.74
55.47
59.68
63.81
67.23
69.49
70.46
70.26
69.12
67.32
64.89
61.68
57.39
51.64
44.00
34.08
21.64
6.89
-9.37
-25.80
-40.80
-53.05
-62.02
-68.05
-72.18
-75.59
-79.10
-82.91
-86.71
-90.07
-92.84
-95.30
-98.15
-102.22
-108.26
-116.65
-127.38
-139.97
-153.58
-167.29
-180.29
-192.05
-202.52
-212.01
-221.12
-230.44
-240.34
-250.67
-260.62
-268.70
-272.99
-271.67
-263.60
-248.73
-228.25
-204.17
-178.71
-153.60
-129.75
-107.22
-85.64
-64.63
-43.95
-23.55
-3.33
17.06
38.18
60.67
85.14
112.08
141.84
174.33
208.67
242.80
273.65
297.80
312.53
316.81
311.57
299.20
282.45
263.49
243.51
222.95
202.08
181.31
161.25
142.30
124.43
107.22
90.27
73.52
57.31
42.16
28.39
15.83
3.89
-8.14
-20.73
-33.83
-46.92
-59.02
-69.00
-75.77
-78.51
-76.93
-71.39
-62.85
-52.56
-41.62
-30.60
-19.39
-7.40
5.90
20.62
36.18
51.55
65.62
77.65
87.44
95.37
102.10
108.39
114.80
121.62
128.73
135.72
142.02
147.10
150.81
153.40
155.48
157.70
160.33
163.01
164.86
164.75
161.85
155.88
147.08
135.93
122.82
108.01
91.74
74.35
56.20
37.31
17.00
-6.02
-33.02
-64.17
-97.65
-129.60
-155.12
-169.93
-171.90
-161.46
-140.91
-113.08
-80.30
-44.26
-6.68
29.75
61.33
84.14
95.48
94.98
84.81
68.52
49.35
29.03
7.55
-15.94
-41.83
-69.22
-95.96
-119.56
-138.25
-151.74
-161.06
-167.82
-173.37
-178.21
-182.08
-184.37
-184.65
-182.95
-179.78
-175.79
-171.51
-167.20
-163.00
-159.13
-155.85
-153.37
-151.46
-149.19
-145.03
-137.31
-124.92
-107.89
-87.49
-65.93
-45.54
-27.97
-13.74
-2.24
7.70
17.26
26.95
36.49
45.00
51.57
55.72
57.76
58.68
59.66
61.57
64.55
68.03
71.08
72.93
73.28
72.36
70.71
68.75
66.56
63.82
60.10
55.09
48.89
42.01
35.10
28.63
22.64
16.78
10.62
4.08
-2.41
-8.07
-12.14
-14.24
-14.51
-13.20
-10.22
-4.88
3.92
17.07
34.48
54.83
75.84
95.00
110.28
120.51
125.37
125.10
120.32
111.94
101.17
89.43
78.07
67.96
59.17
51.03
42.42
32.17
19.50
4.08
-13.95
-34.09
-55.48
-76.91
-96.92
-114.04
-127.22
-136.06
-140.94
-142.76
-142.51
-140.97
-138.46
-135.03
-130.71
-125.79
-120.84
-116.57
-113.62
-112.36
-112.80
-114.57
-116.93
-118.85
-119.13
-116.64
-110.59
-100.75
-87.58
-72.05
-55.43
-38.80
-22.91
-8.01
5.85
18.72
30.46
40.77
49.33
55.91
60.54
63.49
65.23
66.21
66.77
67.09
67.16
66.85
65.98
64.46
62.23
59.37
56.05
52.45
48.70
44.82
40.74
36.37
31.63
26.56
21.28
15.96
10.75
5.70
0.78
-4.12
-9.16
-14.50
-20.28
-26.57
-33.29
-40.13
-46.42
-51.20
-53.41
-52.20
-47.32
-39.17
-28.77
-17.31
-5.82
5.11
15.32
24.83
33.57
41.27
47.49
51.90
54.41
55.23
54.82
53.70
52.40
51.41
51.12
51.72
53.16
55.09
56.97
58.27
58.58
57.78
55.95
53.23
49.78
45.66
40.99
35.98
30.88
26.02
21.62
17.67
13.97
10.10
5.62
0.18
-6.27
-13.29
-20.04
-25.49
-28.80
-29.73
-28.79
-27.07
-25.83
-25.99
-27.85
-31.09
-35.02
-38.83
-41.76
-43.12
-42.29
-38.72
-32.22
-23.08
-12.22
-0.96
9.42
18.08
24.80
29.90
33.95
37.43
40.59
43.54
46.38
49.31
52.61
56.40
60.42
64.00
66.19
66.13
63.37
57.96
50.43
41.58
32.18
22.83
13.89
5.64
-1.70
-7.92
-12.84
-16.43
-18.92
-20.73
-22.41
-24.54
-27.59
-31.88
-37.58
-44.58
-52.43
-60.29
-66.93
-71.02
-71.49
-67.89
-60.59
-50.61
-39.28
-27.80
-16.92
-6.92
2.21
10.48
17.75
23.73
28.12
30.84
32.07
32.32
32.19
32.22
32.66
33.51
34.55
35.46
36.01
36.04
35.51
34.43
32.85
30.82
28.37
25.51
22.21
18.46
14.27
9.74
5.05
0.37
-4.13
-8.40
-12.49
-16.47
-20.38
-24.23
-28.10
-32.19
-36.75
-41.98
-47.66
-53.08
-57.05
-58.30
-55.94
-49.80
-40.57
-29.50
-17.96
-7.01
2.81
11.43
18.96
25.44
30.66
34.31
36.15
36.32
35.29
33.78
32.53
31.97
32.16
32.82
33.48
33.72
33.31
32.33
30.92
29.23
27.24
24.76
21.58
17.60
12.95
7.96
3.00
-1.74
-6.29
-10.84
-15.55
-20.40
-25.22
-29.79
-34.08
-38.38
-43.11
-48.56
-54.54
-60.23
-64.32
-65.46
-62.73
-56.12
-46.49
-35.23
-23.72
-12.87
-3.02
5.92
14.07
21.28
27.14
31.20
33.31
33.77
33.20
32.30
31.60
31.23
31.07
30.90
30.65
30.41
30.36
30.57
30.88
30.89
30.09
28.13
24.98
20.89
16.34
11.74
7.32
3.03
-1.29
-5.77
-10.46
-15.21
-19.89
-24.40
-28.76
-33.13
-37.75
-42.83
-48.43
-54.29
-59.77
-63.91
-65.64
-64.10
-59.00
-50.78
-40.48
-29.38
-18.54
-8.61
0.29
8.31
15.62
22.16
27.69
31.85
34.48
35.69
35.88
35.55
35.16
34.95
34.92
34.92
34.81
34.51
34.01
33.33
32.40
31.07
29.18
26.66
23.54
20.00
16.18
12.16
7.98
3.62
-0.88
-5.43
-9.90
-14.21
-18.37
-22.46
-26.70
-31.31
-36.52
-42.51
-49.27
-56.40
-63.11
-68.19
-70.39
-68.77
-63.07
-53.88
-42.42
-30.12
-18.19
-7.29
2.41
11.06
18.79
25.54
31.09
35.16
37.65
38.69
38.60
37.84
36.85
35.96
35.37
35.18
35.35
35.78
36.29
36.63
36.50
35.62
33.82
31.11
27.67
23.75
19.55
15.19
10.67
5.98
1.18
-3.60
-8.17
-12.40
-16.27
-19.91
-23.51
-27.32
-31.59
-36.54
-42.31
-48.83
-55.65
-61.85
-66.24
-67.60
-65.16
-58.83
-49.28
-37.67
-25.29
-13.23
-2.18
7.57
15.94
22.92
28.50
32.66
35.44
36.96
37.45
37.18
36.44
35.53
34.72
34.27
34.28
34.75
35.47
36.12
36.36
35.90
34.60
32.45
29.53
25.96
21.86
17.37
12.71
8.04
3.52
-0.85
-5.18
-9.58
-14.12
-18.68
-23.06
-27.05
-30.61
-34.01
-37.69
-42.21
-47.86
-54.43
-61.08
-66.52
-69.31
-68.35
-63.31
-54.73
-43.79
-31.89
-20.17
-9.24
0.78
9.99
18.41
25.84
31.92
36.31
38.93
40.02
40.09
39.68
39.22
38.96
38.97
39.22
39.60
40.03
40.34
40.36
39.85
38.59
36.45
33.43
29.68
25.50
21.23
17.13
13.35
9.80
6.21
2.33
-2.02
-6.72
-11.48
-15.96
-19.98
-23.59
-26.99
-30.51
-34.41
-38.91
-44.10
-49.97
-56.26
-62.40
-67.41
-70.13
-69.53
-65.10
-57.07
-46.32
-34.10
-21.59
-9.70
1.01
10.28
17.95
23.96
28.37
31.39
33.49
35.23
37.22
39.84
43.19
47.02
50.79
53.83
55.52
55.44
53.45
49.79
44.87
39.26
33.45
27.83
22.62
17.95
13.92
10.60
8.01
6.03
4.41
2.76
0.75
-1.78
-4.71
-7.75
-10.62
-13.28
-16.04
-19.41
-23.90
-29.69
-36.47
-43.48
-49.56
-53.55
-54.47
-51.83
-45.70
-36.77
-26.12
-14.98
-4.45
4.80
12.53
18.75
23.50
26.69
28.14
27.81
26.02
23.41
20.82
18.86
17.75
17.20
16.77
16.12
15.26
14.55
14.43
15.16
16.61
18.24
19.24
18.76
16.22
11.53
5.14
-2.05
-8.93
-14.56
-18.40
-20.52
-21.39
-21.70
-22.13
-23.21
-25.38
-28.89
-33.80
-39.76
-45.89
-50.82
-53.12
-51.69
-46.25
-37.48
-26.72
-15.56
-5.21
3.70
11.15
17.38
22.58
26.70
29.49
30.73
30.45
29.02
27.04
25.10
23.58
22.51
21.70
20.89
19.88
18.65
17.30
16.03
14.96
14.13
13.52
12.95
12.23
11.10
9.34
6.76
3.26
-1.16
-6.40
-12.32
-18.65
-25.07
-31.24
-36.88
-41.85
-46.21
-50.22
-54.16
-58.17
-62.00
-64.97
-66.10
-64.48
-59.63
-51.78
-41.80
-30.88
-20.11
-10.17
-1.18
7.05
14.77
22.04
28.72
34.44
38.87
41.81
43.32
43.65
43.17
42.27
41.19
40.08
38.95
37.77
36.48
35.02
33.31
31.27
28.87
26.09
23.05
19.83
16.50
13.00
9.23
5.10
0.63
-3.96
-8.33
-12.14
-15.32
-18.02
-20.73
-24.00
-28.32
-33.94
-40.84
-48.69
-56.86
-64.42
-70.22
-73.05
-72.00
-66.73
-57.71
-46.09
-33.38
-20.93
-9.59
0.44
9.38
17.57
25.13
31.84
37.29
41.07
43.03
43.35
42.46
40.86
38.96
37.01
35.06
33.18
31.44
29.98
28.90
28.17
27.58
26.78
25.44
23.35
20.57
17.38
14.14
11.15
8.56
6.25
3.95
1.33
-1.84
-5.60
-9.79
-14.13
-18.45
-22.77
-27.35
-32.68
-39.17
-46.97
-55.66
-64.29
-71.43
-75.63
-75.73
-71.26
-62.55
-50.58
-36.71
-22.29
-8.39
4.29
15.42
24.90
32.67
38.68
42.89
45.27
45.91
45.06
43.15
40.70
38.20
36.09
34.61
33.80
33.47
33.29
32.87
31.76
29.64
26.34
21.93
16.67
10.84
4.75
-1.39
-7.40
-13.05
-17.98
-21.75
-23.89
-24.19
-22.76
-20.13
-17.07
-14.43
-12.98
-13.32
-15.89
-20.94
-28.35
-37.46
-46.85
-54.52
-58.38
-56.91
-49.67
-37.63
-22.73
-7.23
6.98
18.90
28.33
35.59
41.05
44.89
47.09
47.64
46.79
45.06
43.09
41.37
40.13
39.20
38.26
37.06
35.54
33.82
32.10
30.45
28.72
26.64
23.94
20.54
16.63
12.62
9.00
6.15
4.20
2.91
1.77
0.21
-2.24
-5.74
-10.05
-14.72
-19.21
-23.16
-26.53
-29.58
-32.72
-36.27
-40.24
-44.18
-47.23
-48.36
-46.66
-41.74
-33.82
-23.75
-12.70
-1.76
8.34
17.39
25.53
33.00
39.86
45.96
51.01
54.77
57.28
58.89
60.24
62.05
64.85
68.90
74.02
79.72
85.44
90.80
95.71
100.37
105.07
109.93
114.68
118.76
121.41
121.89
119.66
114.35
105.84
94.24
79.98
63.90
47.14
30.81
15.66
1.75
-11.46
-24.84
-39.11
-54.46
-70.44
-86.12
-100.27
-111.66
-119.23
-122.18
-120.24
-113.75
-103.78
-91.89
-79.83
-68.97
-60.03
-53.13
-47.99
-44.39
-42.36
-42.13
-43.86
-47.37
-52.03
-56.89
-61.04
-63.97
-65.74
-66.82
-67.75
-68.69
-69.31
-68.84
-66.66
-62.77
-58.06
-54.10
-52.40
-53.74
-57.76
-63.09
-68.06
-71.38
-72.71
-72.78
-73.00
-75.20
-81.31
-93.11
-111.76
-136.90
-165.92
-193.89
-214.56
-222.35
-214.40
-191.59
-158.00
-118.91
-78.54
-38.66
1.01
41.18
81.09
117.65
146.15
162.04
162.83
149.05
124.07
92.97
61.27
33.85
14.33
5.05
7.08
20.09
42.17
69.80
98.19
122.28
137.95
143.21
138.73
127.39
113.10
99.24
87.50
77.65
68.19
57.58
45.15
31.50
18.00
6.03
-3.78
-11.70
-18.59
-25.27
-32.03
-38.50
-43.97
-47.76
-49.53
-49.21
-46.67
-41.50
-33.08
-21.02
-5.72
11.42
28.28
42.71
53.32
59.85
62.99
63.75
62.98
61.13
58.42
55.17
52.00
49.64
48.58
48.81
49.76
50.55
50.46
49.14
46.77
43.87
41.05
38.68
36.81
35.13
33.18
30.61
27.33
23.57
19.76
16.20
12.90
9.57
5.75
1.12
-4.42
-10.75
-17.60
-24.64
-31.46
-37.46
-41.92
-44.17
-43.85
-41.15
-36.75
-31.52
-26.14
-20.85
-15.47
-9.66
-3.25
3.52
9.99
15.26
18.56
19.53
18.37
15.80
12.80
10.30
8.87
8.64
9.33
10.48
11.71
12.77
13.57
14.01
13.95
13.19
11.62
9.33
6.59
3.76
1.10
-1.36
-3.83
-6.55
-9.69
-13.15
-16.69
-20.14
-23.56
-27.34
-31.98
-37.75
-44.34
-50.81
-55.75
-57.79
-56.15
-50.80
-42.47
-32.28
-21.37
-10.68
-0.78
7.90
15.05
20.34
23.63
25.00
24.83
23.78
22.52
21.55
21.09
21.07
21.32
21.63
21.86
21.92
21.74
21.22
20.24
18.71
16.63
14.08
11.12
7.78
4.02
-0.14
-4.66
-9.41
-14.14
-18.65
-22.84
-26.84
-30.93
-35.45
-40.54
-45.98
-51.10
-54.90
-56.42
-55.01
-50.58
-43.55
-34.74
-24.95
-14.91
-5.11
4.08
12.30
19.20
24.52
28.12
30.10
30.77
30.54
29.85
29.05
28.36
27.86
27.51
27.21
26.81
26.22
25.37
24.27
22.88
21.12
18.84
15.95
12.38
8.27
3.88
-0.51
-4.65
-8.47
-12.03
-15.56
-19.33
-23.60
-28.58
-34.27
-40.44
-46.53
-51.64
-54.76
-54.99
-51.89
-45.68
-37.17
-27.52
-17.88
-9.07
-1.46
5.00
10.55
15.37
19.49
22.78
25.05
26.25
26.56
26.36
26.09
26.11
26.49
27.04
27.43
27.32
26.59
25.37
24.01
22.72
21.53
20.16
18.17
15.20
11.14
6.23
0.95
-4.25
-9.08
-13.57
-17.97
-22.57
-27.61
-33.12
-38.96
-44.78
-50.05
-54.14
-56.36
-56.11
-53.10
-47.34
-39.33
-29.78
-19.55
-9.42
0.04
8.48
15.77
21.89
26.86
30.69
33.38
35.00
35.70
35.76
35.56
35.36
35.32
35.30
35.08
34.40
33.15
31.42
29.46
27.51
25.67
23.80
21.57
18.62
14.67
9.74
4.11
-1.72
-7.24
-12.16
-16.51
-20.56
-24.74
-29.43
-34.75
-40.54
-46.38
-51.60
-55.40
-57.00
-55.80
-51.60
-44.72
-35.88
-26.03
-16.06
-6.58
2.16
10.13
17.30
23.51
28.48
31.90
33.65
33.88
33.07
31.88
30.95
30.82
31.65
33.30
35.36
37.24
38.46
38.67
37.81
35.95
33.19
29.60
25.20
20.01
14.26
8.32
2.69
-2.25
-6.42
-10.07
-13.65
-17.61
-22.17
-27.27
-32.64
-38.03
-43.27
-48.27
-52.78
-56.31
-58.09
-57.32
-53.58
-47.00
-38.46
-29.07
-19.91
-11.49
-3.79
3.56
10.83
17.94
24.29
29.20
32.18
33.28
33.07
32.39
31.93
31.99
32.43
32.83
32.82
32.26
31.32
30.25
29.30
28.49
27.59
26.26
24.20
21.31
17.69
13.62
9.42
5.33
1.47
-2.18
-5.72
-9.23
-12.81
-16.54
-20.51
-24.86
-29.66
-34.90
-40.38
-45.63
-49.93
-52.40
-52.26
-48.99
-42.66
-33.88
-23.73
-13.40
-3.84
4.49
11.61
17.74
23.09
27.58
30.96
32.95
33.48
32.84
31.56
30.22
29.26
28.78
28.66
28.62
28.43
27.98
27.29
26.44
25.45
24.23
22.64
20.49
17.65
14.10
9.98
5.57
1.19
-2.88
-6.51
-9.76
-12.91
-16.33
-20.30
-24.99
-30.25
-35.72
-40.81
-44.83
-47.07
-46.98
-44.23
-38.88
-31.36
-22.42
-12.97
-3.87
4.27
11.10
16.53
20.59
23.36
24.88
25.25
24.62
23.33
21.83
20.59
19.89
19.79
20.07
20.40
20.41
19.95
19.02
17.80
16.45
15.04
13.44
11.43
8.82
5.54
1.71
-2.39
-6.43
-10.11
-13.32
-16.13
-18.76
-21.56
-24.83
-28.85
-33.70
-39.21
-44.90
-50.02
-53.58
-54.71
-52.84
-47.90
-40.39
-31.27
-21.59
-12.31
-3.98
3.21
9.33
14.55
18.97
22.52
25.05
26.47
26.79
26.23
25.20
24.12
23.40
23.25
23.64
24.38
25.12
25.52
25.35
24.53
23.14
21.33
19.21
16.77
13.91
10.51
6.54
2.15
-2.35
-6.60
-10.37
-13.65
-16.66
-19.76
-23.31
-27.53
-32.41
-37.74
-43.05
-47.75
-51.16
-52.66
-51.75
-48.28
-42.40
-34.66
-25.83
-16.72
-7.97
0.00
7.04
13.17
18.45
22.92
26.50
29.05
30.50
30.91
30.60
29.98
29.53
29.50
29.87
30.43
30.79
30.69
29.96
28.65
26.91
24.91
22.73
20.35
17.68
14.63
11.18
7.37
3.37
-0.68
-4.60
-8.34
-11.93
-15.48
-19.17
-23.16
-27.55
-32.35
-37.49
-42.74
-47.71
-51.83
-54.37
-54.60
-52.01
-46.58
-38.78
-29.53
-19.92
-10.84
-2.85
3.98
9.81
14.88
19.33
23.12
26.14
28.27
29.51
30.00
29.99
29.81
29.72
29.88
30.24
30.64
30.84
30.63
29.86
28.56
26.78
24.58
21.97
18.95
15.49
11.67
7.67
3.73
0.01
-3.44
-6.79
-10.27
-14.11
-18.33
-22.77
-27.20
-31.44
-35.54
-39.68
-44.02
-48.37
-52.16
-54.46
-54.37
-51.40
-45.67
-37.92
-29.20
-20.46
-12.28
-4.81
2.05
8.42
14.20
19.11
22.83
25.19
26.32
26.58
26.42
26.20
26.03
25.86
25.54
24.98
24.20
23.30
22.37
21.41
20.34
19.03
17.35
15.25
12.79
10.10
7.42
4.97
2.95
1.37
0.09
-1.19
-2.77
-4.81
-7.30
-10.12
-13.12
-16.30
-19.81
-23.86
-28.53
-33.53
-38.19
-41.57
-42.73
-41.01
-36.28
-28.96
-19.84
-9.91
-0.03
9.21
17.51
24.83
31.24
36.71
41.18
44.47
46.48
47.27
47.09
46.44
45.92
46.10
47.36
49.80
53.19
56.99
60.42
62.68
63.03
61.07
56.78
50.50
42.71
33.97
24.71
15.33
6.32
-1.80
-8.50
-13.49
-16.91
-19.39
-21.84
-25.13
-29.68
-35.44
-41.88
-48.31
-54.08
-58.66
-61.58
-62.33
-60.32
-55.11
-46.62
-35.34
-22.31
-8.92
3.52
14.11
22.57
29.14
34.41
38.96
43.18
47.22
51.05
54.60
57.83
60.74
63.28
65.36
66.77
67.35
66.98
65.58
63.17
59.68
55.03
49.09
41.87
33.61
24.83
16.26
8.58
2.15
-3.12
-7.73
-12.34
-17.45
-23.25
-29.56
-36.11
-42.71
-49.49
-56.90
-65.58
-76.11
-88.71
-102.99
-117.91
-131.84
-142.86
-149.20
-149.78
-144.39
-133.86
-119.76
-103.91
-87.97
-73.08
-59.78
-48.15
-38.04
-29.27
-21.78
-15.59
-10.72
-7.11
-4.55
-2.74
-1.39
-0.32
0.53
1.16
1.55
1.71
1.70
1.51
1.06
0.22
-1.14
-2.90
-4.72
-6.08
-6.50
-5.80
-4.22
-2.32
-0.73
0.12
0.17
-0.38
-1.22
-2.20
-3.37
-4.91
-7.00
-9.63
-12.61
-15.52
-17.89
-19.17
-18.84
-16.55
-12.24
-6.27
0.70
7.95
14.84
21.10
26.69
31.63
35.87
39.16
41.24
41.96
41.35
39.74
37.57
35.32
33.36
31.93
31.12
30.84
30.81
30.71
30.27
29.38
28.11
26.65
25.13
23.53
21.64
19.25
16.20
12.56
8.53
4.44
0.52
-3.11
-6.49
-9.72
-12.83
-15.77
-18.42
-20.75
-22.88
-25.12
-27.78
-30.95
-34.25
-36.85
-37.65
-35.69
-30.55
-22.57
-12.79
-2.54
7.01
15.15
21.81
27.28
31.84
35.49
37.86
38.46
37.08
34.06
30.26
26.83
24.61
23.86
24.18
24.74
24.82
24.10
22.84
21.55
20.65
20.26
20.02
19.40
17.96
15.56
12.45
9.06
5.86
3.07
0.64
-1.76
-4.57
-8.21
-12.94
-18.79
-25.60
-32.95
-40.20
-46.48
-50.82
-52.34
-50.51
-45.37
-37.60
-28.31
-18.68
-9.63
-1.68
5.00
10.39
14.48
17.15
18.40
18.33
17.36
16.03
14.90
14.28
14.21
14.44
14.68
14.69
14.39
13.85
13.10
12.09
10.66
8.59
5.79
2.35
-1.47
-5.41
-9.29
-13.10
-16.87
-20.65
-24.48
-28.38
-32.45
-36.86
-41.71
-46.82
-51.61
-55.14
-56.35
-54.44
-49.20
-41.13
-31.25
-20.76
-10.64
-1.50
6.54
13.61
19.82
25.10
29.20
31.78
32.69
32.12
30.65
29.04
27.95
27.69
28.08
28.61
28.72
28.04
26.56
24.57
22.46
20.47
18.54
16.39
13.64
10.02
5.55
0.56
-4.49
-9.23
-13.49
-17.45
-21.47
-25.93
-31.05
-36.79
-42.84
-48.68
-53.68
-57.11
-58.23
-56.48
-51.59
-43.81
-33.90
-22.99
-12.21
-2.40
6.09
13.31
19.50
24.77
29.02
32.02
33.61
33.87
33.20
32.16
31.25
30.71
30.45
30.21
29.74
28.88
27.70
26.35
24.96
23.56
22.02
20.15
17.68
14.48
10.50
5.93
1.13
-3.49
-7.64
-11.27
-14.66
-18.28
-22.61
-27.89
-33.96
-40.33
-46.17
-50.58
-52.73
-52.06
-48.38
-41.98
-33.48
-23.74
-13.67
-3.99
4.83
12.63
19.39
25.16
29.87
33.37
35.55
36.43
36.25
35.52
34.79
34.47
34.63
35.05
35.31
35.06
34.15
32.72
31.02
29.26
27.40
25.20
22.30
18.49
13.77
8.41
2.91
-2.29
-6.90
-10.99
-14.85
-18.92
-23.54
-28.84
-34.70
-40.74
-46.38
-50.90
-53.49
-53.41
-50.18
-43.80
-34.79
-24.17
-13.14
-2.79
6.21
13.67
19.73
24.68
28.67
31.62
33.33
33.67
32.79
31.15
29.41
28.19
27.78
28.12
28.88
29.56
29.82
29.50
28.60
27.23
25.47
23.33
20.79
17.81
14.39
10.58
6.48
2.23
-2.01
-6.14
-10.08
-13.90
-17.75
-21.82
-26.33
-31.37
-36.76
-42.02
-46.37
-48.82
-48.50
-44.93
-38.26
-29.24
-19.00
-8.78
0.49
8.34
14.72
19.83
23.82
26.76
28.53
29.07
28.51
27.24
25.88
24.96
24.79
25.32
26.16
26.80
26.91
26.42
25.52
24.48
23.38
22.10
20.25
17.46
13.57
8.78
3.59
-1.35
-5.57
-8.93
-11.72
-14.47
-17.73
-21.86
-26.89
-32.51
-38.19
-43.20
-46.74
-48.05
-46.52
-41.91
-34.55
-25.25
-15.09
-5.18
3.77
11.44
17.88
23.17
27.30
30.07
31.31
31.03
29.54
27.44
25.40
23.94
23.27
23.22
23.37
23.30
22.72
21.62
20.21
18.75
17.37
15.95
14.13
11.53
7.95
3.50
-1.39
-6.15
-10.36
-13.94
-17.13
-20.42
-24.30
-29.09
-34.82
-41.15
-47.41
-52.73
-56.13
-56.74
-54.07
-48.18
-39.65
-29.48
-18.78
-8.46
0.90
9.06
16.00
21.77
26.39
29.83
32.10
33.22
33.35
32.75
31.71
30.58
29.61
28.99
28.72
28.65
28.57
28.23
27.44
26.15
24.36
22.10
19.37
16.07
12.17
7.69
2.88
-1.91
-6.29
-10.04
-13.24
-16.24
-19.51
-23.45
-28.23
-33.78
-39.76
-45.70
-50.94
-54.72
-56.22
-54.83
-50.30
-42.98
-33.68
-23.49
-13.40
-4.05
4.31
11.78
18.51
24.53
29.67
33.64
36.16
37.18
36.89
35.75
34.27
32.91
31.93
31.39
31.17
31.09
30.94
30.55
29.78
28.52
26.72
24.36
21.44
18.00
14.09
9.81
5.32
0.75
-3.74
-8.06
-12.22
-16.28
-20.36
-24.56
-29.03
-33.86
-39.06
-44.49
-49.69
-53.94
-56.34
-56.09
-52.71
-46.28
-37.40
-27.05
-16.31
-6.04
3.23
11.35
18.34
24.32
29.29
33.17
35.83
37.20
37.40
36.68
35.47
34.22
33.25
32.76
32.70
32.85
32.91
32.61
31.80
30.46
28.63
26.38
23.73
20.65
17.14
13.25
9.13
4.99
0.99
-2.78
-6.34
-9.83
-13.41
-17.19
-21.24
-25.61
-30.30
-35.30
-40.48
-45.48
-49.67
-52.17
-52.10
-48.86
-42.51
-33.73
-23.75
-13.82
-4.90
2.65
8.95
14.34
18.99
22.78
25.42
26.67
26.62
25.70
24.58
23.85
23.77
24.23
24.83
25.16
25.02
24.47
23.78
23.21
22.71
22.00
20.65
18.34
15.10
11.32
7.55
4.18
1.26
-1.51
-4.50
-7.87
-11.51
-15.07
-18.27
-21.13
-24.06
-27.55
-31.85
-36.57
-40.66
-42.75
-41.74
-37.21
-29.73
-20.61
-11.27
-2.81
4.32
10.26
15.30
19.59
22.94
25.00
25.52
24.68
22.97
21.11
19.66
18.93
18.84
19.10
19.39
19.44
19.14
18.51
17.59
16.38
14.84
12.84
10.23
6.96
3.11
-1.03
-5.07
-8.62
-11.54
-13.94
-16.24
-18.98
-22.58
-27.18
-32.56
-38.16
-43.18
-46.81
-48.33
-47.32
-43.75
-37.97
-30.62
-22.50
-14.32
-6.58
0.48
6.84
12.50
17.41
21.37
24.13
25.49
25.47
24.41
22.86
21.43
20.53
20.30
20.54
20.87
20.91
20.45
19.44
17.94
16.05
13.79
11.14
8.05
4.50
0.56
-3.62
-7.83
-11.86
-15.57
-18.96
-22.12
-25.28
-28.71
-32.66
-37.29
-42.43
-47.61
-51.93
-54.34
-53.91
-50.27
-43.72
-35.18
-25.89
-16.86
-8.65
-1.31
5.35
11.51
17.13
21.91
25.48
27.61
28.30
27.85
26.73
25.43
24.38
23.77
23.55
23.50
23.33
22.92
22.23
21.40
20.47
19.34
17.76
15.44
12.21
8.20
3.74
-0.75
-4.94
-8.70
-12.13
-15.47
-18.97
-22.86
-27.25
-32.18
-37.57
-43.11
-48.29
-52.34
-54.41
-53.83
-50.28
-44.01
-35.76
-26.55
-17.34
-8.70
-0.81
6.43
13.12
19.18
24.22
27.79
29.60
29.76
28.79
27.46
26.43
26.00
26.06
26.19
25.96
25.12
23.76
22.12
20.48
18.91
17.24
15.12
12.24
8.48
4.03
-0.68
-5.14
-8.96
-11.97
-14.27
-16.12
-17.90
-19.98
-22.71
-26.28
-30.66
-35.47
-39.96
-43.13
-44.06
-42.16
-37.46
-30.58
-22.45
-13.95
-5.66
2.27
9.90
17.29
24.20
30.11
34.41
36.72
37.11
36.14
34.69
33.63
33.45
34.22
35.57
36.98
38.01
38.42
38.13
37.18
35.55
33.14
29.79
25.45
20.20
14.27
8.01
1.76
-4.19
-9.71
-14.77
-19.44
-23.85
-28.19
-32.68
-37.52
-42.80
-48.47
-54.17
-59.25
-62.87
-64.24
-62.88
-58.76
-52.35
-44.41
-35.67
-26.61
-17.40
-8.04
1.48
10.89
19.72
27.37
33.37
37.47
39.82
40.87
41.18
41.34
41.71
42.37
43.11
43.55
43.22
41.83
39.31
35.81
31.65
27.17
22.63
18.18
13.86
9.70
5.70
1.93
-1.64
-5.10
-8.62
-12.37
-16.53
-21.09
-25.97
-30.96
-35.92
-40.85
-45.79
-50.78
-55.54
-59.46
-61.57
-60.81
-56.42
-48.20
-36.71
-23.14
-8.97
4.33
15.71
24.67
31.25
35.81
38.84
40.71
41.59
41.58
40.74
39.37
37.89
36.84
36.55
37.04
37.97
38.79
38.99
38.30
36.76
34.58
31.99
29.07
25.81
22.14
18.09
13.84
9.64
5.71
2.15
-1.12
-4.20
-7.20
-10.18
-13.16
-16.18
-19.37
-22.88
-26.82
-31.22
-36.01
-40.94
-45.58
-49.27
-51.22
-50.74
-47.38
-41.25
-33.00
-23.65
-14.27
-5.59
2.08
8.83
14.78
19.93
24.06
26.83
28.12
28.11
27.30
26.28
25.48
25.05
24.87
24.69
24.32
23.77
23.15
22.60
22.11
21.49
20.42
18.57
15.78
12.19
8.13
4.02
0.17
-3.36
-6.71
-10.15
-13.90
-17.96
-22.13
-26.08
-29.48
-32.13
-34.00
-35.25
-36.15
-37.02
-38.15
-39.65
-41.43
-43.07
-43.93
-43.23
-40.33
-34.89
-27.05
-17.44
-6.97
3.39
12.89
21.10
27.91
33.40
37.67
40.74
42.60
43.23
42.73
41.41
39.68
37.98
36.63
35.78
35.37
35.28
35.35
35.44
35.41
35.06
34.08
32.15
28.99
24.53
19.00
12.89
6.82
1.38
-3.07
-6.47
-9.05
-11.11
-12.99
-14.83
-16.64
-18.34
-19.90
-21.45
-23.22
-25.51
-28.49
-32.07
-35.91
-39.35
-41.64
-42.06
-40.20
-36.01
-29.89
-22.53
-14.70
-7.10
-0.21
5.70
10.50
14.09
16.44
17.56
17.63
16.98
16.02
15.14
14.60
14.47
14.65
14.94
15.18
15.20
14.94
14.38
13.57
12.55
11.41
10.17
8.86
7.43
5.80
3.93
1.81
-0.48
-2.80
-5.00
-7.00
-8.84
-10.72
-12.85
-15.48
-18.73
-22.59
-26.87
-31.22
-35.10
-37.89
-38.97
-37.84
-34.30
-28.52
-21.06
-12.85
-4.84
2.16
7.70
11.78
14.73
16.90
18.53
19.57
19.85
19.28
18.02
16.53
15.44
15.16
15.75
16.81
17.69
17.81
16.93
15.27
13.27
11.43
10.00
8.76
7.30
5.19
2.24
-1.34
-5.06
-8.40
-11.07
-13.20
-15.22
-17.62
-20.63
-24.22
-28.08
-31.93
-35.63
-39.18
-42.55
-45.36
-46.87
-46.18
-42.66
-36.28
-27.78
-18.43
-9.56
-2.03
3.90
8.59
12.58
16.25
19.60
22.30
23.91
24.24
23.47
22.16
20.96
20.39
20.57
21.26
22.01
22.38
22.13
21.27
19.95
18.34
16.49
14.36
11.82
8.78
5.27
1.44
-2.47
-6.24
-9.74
-13.01
-16.19
-19.45
-22.89
-26.55
-30.40
-34.42
-38.61
-42.89
-46.97
-50.26
-51.94
-51.24
-47.77
-41.72
-33.81
-25.04
-16.33
-8.28
-1.10
5.25
10.84
15.67
19.64
22.60
24.49
25.41
25.57
25.32
24.99
24.84
24.97
25.29
25.57
25.58
25.17
24.32
23.10
21.61
19.86
17.75
15.17
12.03
8.36
4.32
0.16
-3.87
-7.62
-11.00
-14.07
-16.97
-19.92
-23.15
-26.86
-31.16
-35.99
-41.13
-46.15
-50.39
-53.11
-53.66
-51.61
-46.93
-40.05
-31.72
-22.88
-14.31
-6.49
0.42
6.52
12.00
16.92
21.18
24.56
26.87
28.03
28.19
27.72
27.07
26.66
26.73
27.26
28.01
28.60
28.72
28.21
27.08
25.47
23.51
21.27
18.72
15.79
12.45
8.77
4.85
0.84
-3.15
-7.04
-10.77
-14.34
-17.78
-21.20
-24.82
-28.83
-33.35
-38.38
-43.60
-48.49
-52.27
-54.10
-53.30
-49.56
-43.08
-34.58
-25.05
-15.46
-6.52
1.52
8.69
15.18
21.06
26.18
30.28
33.04
34.38
34.48
33.79
32.91
32.35
32.35
32.87
33.64
34.29
34.55
34.29
33.48
32.15
30.25
27.73
24.55
20.83
16.82
12.79
8.99
5.43
1.96
-1.62
-5.49
-9.70
-14.10
-18.56
-22.97
-27.39
-32.03
-37.05
-42.40
-47.64
-52.03
-54.61
-54.57
-51.52
-45.64
-37.65
-28.51
-19.12
-10.08
-1.64
6.22
13.49
20.03
25.52
29.60
32.06
32.96
32.71
31.91
31.11
30.69
30.77
31.29
32.11
33.10
34.10
34.93
35.27
34.84
33.42
31.02
27.88
24.37
20.89
17.72
14.89
12.24
9.44
6.15
2.17
-2.46
-7.48
-12.49
-17.04
-20.93
-24.23
-27.23
-30.44
-34.24
-38.78
-43.78
-48.51
-51.99
-53.22
-51.48
-46.63
-39.12
-29.90
-20.07
-10.55
-1.89
5.75
12.38
18.05
22.74
26.35
28.81
30.13
30.51
30.28
29.85
29.58
29.68
30.12
30.75
31.30
31.59
31.56
31.26
30.76
30.01
28.84
26.98
24.25
20.72
16.72
12.70
9.10
6.09
3.54
1.11
-1.63
-4.97
-8.97
-13.42
-17.96
-22.27
-26.27
-30.15
-34.35
-39.28
-44.94
-50.74
-55.48
-57.69
-56.21
-50.69
-41.79
-31.12
-20.70
-12.47
-7.80
-7.44
-11.37
-18.79
-28.00
-36.59
-41.99
-42.28
-37.07
-27.73
-16.92
-7.30
-0.14
5.30
11.44
20.97
35.23
53.17
71.48
85.79
92.21
88.76
75.95
56.44
34.18
13.15
-3.76
-15.39
-22.34
-26.44
-29.77
-33.78
-38.59
-43.18
-45.94
-45.66
-42.20
-36.68
-31.06
-27.19
-26.02
-27.23
-29.44
-30.86
-30.11
-26.74
-21.30
-15.10
-9.77
-6.95
-7.90
-12.94
-20.86
-28.50
-31.19
-24.34
-5.59
23.40
56.56
85.07
100.53
98.34
79.73
51.43
23.14
3.91
-0.72
9.58
30.41
54.73
75.65
88.55
91.91
86.64
74.79
58.83
40.59
21.18
1.49
-17.16
-32.80
-43.46
-48.06
-47.05
-41.46
-33.07
-23.75
-14.94
-6.85
1.42
11.01
22.20
33.79
44.80
54.39
62.61
70.45
79.91
93.20
111.61
134.67
152.96
158.02
146.21
121.33
91.24
63.11
40.98
25.81
16.55
10.97
7.53
4.73
1.71
-3.42
-11.25
-20.35
-27.51
-29.16
-23.14
-9.11
10.55
31.39
48.32
57.60
57.92
50.62
38.96
26.59
16.63
10.72
9.09
10.89
14.85
19.89
25.22
30.22
34.34
37.39
39.69
41.93
44.66
47.70
50.20
50.91
48.43
41.82
30.83
16.43
0.47
-15.05
-29.47
-42.77
-55.19
-67.13
-78.80
-90.92
-103.68
-116.58
-128.80
-141.12
-153.67
-165.53
-175.46
-182.34
-187.53
-192.99
-200.15
-209.59
-223.26
-240.60
-258.44
-272.79
-280.17
-281.85
-281.07
-281.25
-285.29
-297.87
-319.69
-346.60
-371.63
-387.01
-390.91
-384.82
-372.06
-334.14
-267.84
-185.27
-105.49
-51.53
-17.90
1.96
12.37
18.96
25.37
31.76
39.77
52.40
72.29
101.22
135.71
171.80
207.22
241.37
272.64
301.56
330.76
363.46
402.06
443.39
480.96
506.54
511.84
489.80
439.23
365.76
279.52
191.69
108.58
31.71
-40.89
-112.27
-184.40
-255.52
-320.57
-373.32
-408.78
-425.71
-425.68
-411.79
-387.45
-355.67
-318.55
-277.71
-234.77
-191.62
-150.62
-113.66
-81.47
-53.51
-28.18
-3.46
22.52
51.09
83.00
118.76
158.71
202.59
248.68
293.32
331.24
357.04
367.31
362.18
345.47
323.27
301.64
284.85
274.64
270.66
271.41
274.89
278.93
281.35
280.34
275.17
266.70
257.24
249.48
245.27
244.77
246.58
248.54
248.80
246.46
241.42
233.83
223.60
210.21
193.06
171.76
146.36
117.35
85.37
51.19
15.66
-20.11
-54.65
-86.30
-113.45
-135.01
-150.55
-160.45
-165.71
-167.58
-167.22
-165.34
-162.19
-157.59
-151.39
-143.73
-135.28
-127.12
-120.25
-115.26
-111.94
-109.45
-106.70
-102.92
-97.88
-92.02
-86.09
-80.78
-76.37
-72.66
-69.21
-65.62
-61.85
-58.20
-55.19
-53.19
-52.21
-51.95
-51.95
-51.99
-52.20
-53.02
-54.89
-57.94
-61.80
-65.71
-68.81
-70.53
-70.79
-70.01
-68.85
-67.91
-67.46
-67.40
-67.35
-66.91
-65.88
-64.30
-62.39
-60.22
-57.64
-54.24
-49.60
-43.58
-36.48
-28.90
-21.57
-14.99
-9.27
-4.18
0.68
5.63
10.77
15.98
20.97
25.40
29.01
31.64
33.30
34.05
34.05
33.52
32.68
31.79
31.10
30.76
30.69
30.60
30.01
28.54
26.10
23.03
20.04
17.85
16.96
17.38
18.74
20.44
21.97
23.03
23.55
23.51
22.84
21.48
19.42
16.89
14.33
12.25
10.95
10.39
10.10
9.45
7.90
5.29
1.91
-1.69
-4.83
-7.07
-8.30
-8.78
-9.03
-9.66
-11.14
-13.65
-16.96
-20.60
-23.96
-26.56
-28.21
-28.98
-29.16
-29.07
-28.96
-29.12
-29.76
-31.00
-32.78
-34.75
-36.27
-36.64
-35.36
-32.51
-28.63
-24.49
-20.70
-17.36
-14.11
-10.42
-6.03
-1.29
3.09
6.46
8.58
9.89
11.21
13.21
15.99
18.85
20.79
21.12
19.87
17.86
16.20
15.62
16.19
17.32
18.21
18.31
17.50
16.10
14.51
13.08
12.01
11.35
11.12
11.26
11.61
11.92
11.90
11.41
10.60
9.67
8.83
8.08
7.24
6.08
4.50
2.62
0.71
-1.03
-2.61
-4.19
-6.09
-8.52
-11.41
-14.50
-17.41
-19.87
-21.76
-23.06
-23.71
-23.47
-21.95
-18.78
-13.97
-8.03
-1.87
3.57
7.72
10.77
13.51
17.06
22.18
28.89
36.30
43.03
47.81
50.11
50.53
50.53
51.83
55.65
62.10
70.25
78.52
85.37
89.82
91.34
89.91
86.15
81.50
78.21
78.57
83.61
91.93
99.64
101.45
92.92
72.67
43.31
10.51
-19.43
-42.56
-59.05
-73.12
-90.79
-116.79
-152.00
-192.83
-232.63
-264.46
-284.01
-291.02
-288.55
-280.88
-271.06
-259.79
-245.96
-228.19
-206.38
-182.15
-158.20
-136.90
-119.18
-104.21
-90.00
-74.64
-57.26
-38.41
-19.82
-3.33
9.94
20.09
28.10
35.21
42.13
48.70
54.04
57.17
57.57
55.57
52.23
48.85
46.46
45.31
44.94
44.45
43.03
40.25
36.26
31.60
26.81
22.30
18.09
14.02
9.86
5.47
0.85
-3.77
-7.96
-11.00
-12.05
-10.35
-5.49
2.33
12.21
22.81
32.72
40.86
46.67
50.18
51.73
51.79
50.85
49.29
47.41
45.51
43.76
42.22
40.90
39.72
38.63
37.57
36.46
35.18
33.64
31.72
29.40
26.74
23.83
20.74
17.45
13.95
10.24
6.42
2.69
-0.72
-3.64
-6.10
-8.31
-10.60
-13.32
-16.68
-20.56
-24.77
-29.05
-33.20
-37.14
-40.67
-43.36
-44.54
-43.44
-39.52
-32.76
-23.73
-13.44
-2.99
6.73
15.28
22.54
28.58
33.46
37.15
39.65
41.05
41.59
41.65
41.62
41.74
41.96
42.07
41.75
40.79
39.24
37.33
35.39
33.69
32.21
30.78
29.06
26.78
23.88
20.50
16.96
13.53
10.34
7.25
3.97
0.21
-4.18
-9.09
-14.23
-19.28
-24.05
-28.48
-32.64
-36.55
-40.16
-43.31
-45.77
-47.23
-47.32
-45.53
-41.36
-34.48
-24.86
-12.96
0.33
13.83
26.38
37.06
45.46
51.70
56.38
60.29
