1660752398.00
64.000000
-0.00
-0.00
-0.00
-0.00
-0.00
-0.00
-0.00
-0.00
-0.00
-0.00
0.00
0.01
0.01
-0.00
-0.03
-0.05
-0.05
0.00
0.13
0.36
0.66
1.01
1.37
1.72
2.06
2.40
2.79
3.24
3.80
4.42
5.06
5.66
6.20
6.68
7.15
7.68
8.31
9.14
10.09
11.04
11.88
12.56
13.14
13.76
14.65
15.96
17.91
20.32
22.90
25.38
27.58
29.57
31.68
34.32
37.81
42.54
48.15
54.10
59.83
64.97
69.58
74.14
79.34
85.71
93.76
103.00
112.62
121.73
129.77
136.75
143.30
150.75
157.77
166.64
177.95
191.79
206.97
220.57
228.25
225.36
208.53
176.87
132.76
80.05
23.07
-34.94
-92.44
-149.16
-205.23
-260.37
-313.74
-363.87
-409.83
-450.91
-486.50
-515.74
-537.23
-549.22
-549.96
-538.37
-514.21
-478.67
-433.88
-382.45
-327.02
-269.84
-212.63
-156.66
-102.95
-52.37
-5.90
35.58
71.43
101.35
125.50
144.38
158.69
169.15
176.37
180.75
182.57
182.07
179.51
175.23
169.65
163.18
156.15
148.81
141.30
133.69
126.02
118.33
110.69
103.16
95.80
88.68
81.83
75.25
68.95
62.95
57.25
51.86
46.78
42.03
37.59
33.45
29.61
26.07
22.81
19.83
17.11
14.67
12.48
10.54
8.83
7.35
6.07
4.97
4.05
3.27
2.64
2.12
1.70
1.38
1.13
0.95
0.83
0.75
0.71
0.71
0.73
0.76
0.80
0.85
0.91
0.96
1.01
1.05
1.09
1.13
1.17
1.22
1.27
1.33
1.42
1.52
1.66
1.82
2.02
2.26
2.53
2.84
3.19
3.58
4.01
4.48
4.99
5.54
6.13
6.75
7.42
8.12
8.86
9.64
10.46
11.32
12.22
13.15
14.12
15.12
16.16
17.23
18.38
19.61
20.90
22.22
23.51
24.71
25.76
26.55
27.04
27.12
26.64
25.36
23.03
19.39
14.24
7.45
-0.89
-10.45
-20.78
-31.33
-41.54
-50.88
-58.85
-64.97
-68.82
-69.98
-67.97
-62.56
-53.77
-42.06
-28.34
-13.82
0.20
13.05
23.59
31.60
37.23
40.73
42.19
41.27
37.59
30.80
21.02
9.02
-3.65
-15.28
-24.51
-30.79
-34.70
-37.53
-40.74
-45.22
-50.83
-56.36
-60.25
-61.31
-59.22
-55.01
-50.49
-47.79
-48.72
-54.23
-63.73
-74.74
-82.74
-81.57
-65.70
-32.09
17.67
76.99
135.76
183.48
212.57
220.64
210.99
189.94
164.53
140.07
119.19
102.21
88.11
75.38
62.37
47.89
29.88
7.08
-20.41
-50.87
-80.73
-104.98
-118.64
-121.96
-113.81
-96.14
-73.30
-50.53
-31.96
-19.44
-12.60
-9.70
-8.74
-8.16
-8.71
-11.66
-20.08
-37.28
-65.48
-104.67
-151.94
-201.60
-246.24
-279.41
-296.90
-297.17
-280.73
-249.47
-206.14
-154.34
-98.32
-43.06
5.78
42.90
65.54
74.29
72.90
66.96
62.21
63.81
74.43
93.05
114.45
132.85
143.85
146.09
141.25
133.28
128.10
129.60
137.06
143.08
140.24
123.09
90.09
42.97
-13.63
-71.03
-120.78
-157.43
-182.30
-195.35
-195.45
-180.48
-149.86
-104.47
-43.21
33.94
124.34
218.33
309.44
393.15
466.82
527.27
551.97
526.06
452.14
375.74
312.43
263.81
217.40
167.39
110.98
49.46
-8.92
-54.58
-81.99
-97.15
-107.81
-122.55
-147.29
-184.83
-232.91
-282.73
-324.84
-353.87
-373.46
-387.34
-397.73
-403.74
-403.53
-395.15
-376.58
-347.98
-312.02
-274.61
-238.67
-204.15
-169.05
-132.36
-94.87
-58.47
-25.80
0.64
18.60
28.77
34.00
38.28
45.20
57.64
77.74
106.36
142.35
182.08
220.85
254.15
279.03
294.78
302.80
305.43
304.69
301.45
295.44
286.05
273.17
257.52
240.49
223.62
208.07
194.48
183.02
173.58
166.05
160.21
155.78
152.15
148.25
142.50
133.19
119.27
101.26
81.71
64.71
54.45
53.59
62.10
77.27
94.79
110.29
120.58
124.06
120.46
110.17
93.62
71.15
43.31
11.48
-21.73
-52.70
-77.96
-95.64
-106.44
-113.50
-120.85
-131.17
-144.15
-156.60
-164.31
-164.54
-157.71
-147.11
-136.92
-129.64
-124.90
-119.92
-111.53
-98.35
-81.55
-64.06
-48.73
-36.63
-26.45
-15.49
-1.35
16.51
36.46
55.40
70.29
79.29
82.19
80.07
74.45
66.68
57.74
48.25
38.64
29.19
20.00
11.08
2.44
-5.69
-12.90
-18.73
-22.87
-25.24
-25.95
-25.19
-23.34
-21.17
-19.88
-20.91
-25.30
-33.01
-42.63
-51.75
-57.95
-59.99
-58.38
-55.20
-53.06
-53.78
-57.44
-62.14
-64.66
-61.47
-49.98
-29.25
-0.52
32.92
66.24
93.97
111.23
114.84
104.07
80.60
47.77
9.52
-30.52
-69.24
-103.90
-131.89
-151.12
-160.54
-160.70
-153.56
-141.49
-126.17
-108.15
-87.39
-64.25
-40.35
-18.21
-0.18
12.55
20.23
23.64
22.90
16.85
3.46
-19.13
-51.85
-94.39
-145.16
-201.10
-257.21
-306.48
-340.85
-353.53
-341.66
-307.82
-259.39
-206.12
-156.48
-115.37
-83.74
-59.90
-41.67
-27.38
-15.84
-5.98
3.33
13.12
23.95
35.47
46.58
55.52
60.83
61.99
59.58
54.47
47.81
40.62
33.51
26.57
18.90
9.33
-2.96
-18.21
-37.25
-60.17
-85.88
-112.11
-135.56
-154.53
-168.16
-176.31
-179.70
-182.33
-187.95
-198.25
-212.16
-225.92
-238.42
-249.55
-259.48
-268.22
-279.40
-295.13
-314.32
-332.73
-343.82
-346.85
-343.06
-333.35
-317.29
-298.74
-280.70
-264.30
-249.17
-233.11
-220.54
-215.09
-215.24
-181.81
-89.50
60.88
240.00
394.45
515.45
603.43
661.33
690.74
692.94
666.78
615.49
548.90
482.55
434.76
412.97
415.69
434.55
457.85
470.85
464.24
437.44
397.96
358.25
324.82
299.84
282.46
270.27
257.94
240.73
216.17
184.84
150.28
114.41
79.28
47.37
21.11
0.75
-14.68
-26.56
-36.07
-43.65
-50.85
-59.04
-68.75
-79.42
-90.20
-99.95
-107.64
-112.58
-114.56
-114.43
-113.33
-112.16
-111.24
-110.49
-109.60
-108.37
-106.70
-104.64
-102.15
-99.03
-94.95
-89.38
-81.90
-72.32
-60.75
-47.72
-34.06
-20.81
-8.98
0.61
7.44
11.39
12.61
11.45
8.42
4.11
-0.78
-5.55
-9.59
-12.56
-14.43
-15.47
-16.10
-16.70
-17.49
-18.51
-19.67
-20.89
-22.12
-23.43
-24.93
-26.69
-28.68
-30.76
-32.70
-34.30
-35.53
-36.56
-37.76
-39.60
-42.42
-46.34
-51.04
-55.80
-59.51
-60.87
-58.66
-52.08
-41.08
-26.42
-9.60
7.58
23.52
37.13
47.93
55.84
60.87
63.01
62.25
58.84
53.38
46.83
40.21
34.31
29.48
25.63
22.41
19.46
16.50
13.42
10.22
6.89
3.42
-0.29
-4.41
-9.12
-14.49
-20.40
-26.53
-32.37
-37.50
-41.80
-45.47
-48.99
-52.93
-57.70
-63.52
-70.27
-77.54
-84.53
-90.06
-92.64
-90.86
-83.78
-71.40
-54.80
-35.85
-16.72
0.77
15.55
27.32
36.29
42.89
47.40
49.94
50.62
49.66
47.45
44.52
41.47
38.70
36.45
34.67
33.22
31.92
30.63
29.29
27.83
26.20
24.28
21.95
19.00
15.23
10.56
5.01
-1.21
-7.70
-13.99
-19.72
-24.77
-29.37
-33.97
-39.12
-45.23
-52.44
-60.56
-69.02
-76.89
-82.93
-85.72
-84.01
-77.09
-65.10
-49.07
-30.71
-11.90
5.77
21.30
34.26
44.64
52.46
57.73
60.37
60.41
58.14
54.15
49.31
44.50
40.43
37.46
35.54
34.43
33.78
33.29
32.73
31.94
30.77
29.06
26.68
23.63
19.99
15.98
11.80
7.61
3.42
-0.87
-5.37
-10.13
-15.00
-19.76
-24.14
-28.11
-31.89
-36.02
-41.12
-47.65
-55.53
-64.03
-71.74
-76.91
-77.86
-73.46
-63.47
-48.62
-30.48
-11.02
7.82
24.52
38.23
48.70
56.11
60.84
63.22
63.54
62.04
59.05
55.07
50.69
46.46
42.73
39.58
36.94
34.71
32.83
31.31
30.08
28.91
27.43
25.23
22.08
18.04
13.49
8.93
4.74
1.06
-2.25
-5.52
-9.10
-13.16
-17.66
-22.36
-26.98
-31.34
-35.50
-39.70
-44.34
-49.74
-56.05
-63.04
-69.95
-75.63
-78.60
-77.45
-71.28
-60.08
-44.79
-27.08
-8.83
8.32
23.26
35.46
44.73
51.08
54.57
55.45
54.15
51.34
47.80
44.25
41.18
38.87
37.34
36.49
36.12
35.98
35.79
35.29
34.22
32.46
29.96
26.87
23.37
19.69
15.94
12.13
8.17
3.94
-0.57
-5.28
-10.01
-14.59
-18.95
-23.15
-27.37
-31.84
-36.81
-42.51
-49.07
-56.34
-63.73
-70.13
-74.00
-73.78
-68.40
-57.64
-42.33
-24.19
-5.26
12.56
27.93
40.19
49.19
55.15
58.44
59.43
58.52
56.20
52.96
49.31
45.72
42.56
40.05
38.23
37.02
36.20
35.56
34.84
33.82
32.32
30.21
27.42
23.92
19.75
15.05
10.05
4.99
0.09
-4.59
-9.12
-13.66
-18.34
-23.15
-27.93
-32.43
-36.50
-40.20
-43.92
-48.26
-53.83
-60.84
-68.84
-76.64
-82.48
-84.48
-81.24
-72.29
-58.28
-40.80
-21.84
-3.34
13.29
27.28
38.44
46.86
52.75
56.26
57.55
56.86
54.69
51.71
48.62
45.94
43.89
42.34
41.01
39.66
38.27
36.97
35.90
35.01
33.98
32.30
29.53
25.51
20.45
14.88
9.42
4.50
0.26
-3.51
-7.19
-11.10
-15.35
-19.79
-24.14
-28.12
-31.74
-35.20
-38.90
-43.30
-48.72
-55.22
-62.48
-69.75
-75.81
-79.16
-78.34
-72.36
-61.14
-45.58
-27.44
-8.77
8.60
23.48
35.43
44.50
50.95
55.00
56.84
56.70
54.93
52.10
48.80
45.57
42.78
40.55
38.84
37.58
36.67
36.02
35.51
34.93
34.01
32.45
30.04
26.74
22.73
18.41
14.29
10.78
8.05
5.96
4.14
2.18
-0.20
-3.06
-6.24
-9.54
-12.88
-16.33
-20.17
-24.76
-30.49
-37.58
-46.01
-55.26
-64.33
-71.72
-75.73
-74.98
-68.86
-57.79
-43.15
-26.88
-10.86
3.52
15.55
25.11
32.33
37.38
40.35
41.32
40.52
38.39
35.51
32.54
29.96
28.02
26.77
26.05
25.73
25.67
25.81
26.05
26.20
25.94
24.93
22.91
19.88
16.07
11.92
7.84
4.05
0.49
-3.08
-6.92
-11.14
-15.61
-20.03
-24.14
-27.80
-31.08
-34.23
-37.60
-41.51
-46.25
-51.92
-58.36
-64.97
-70.61
-73.70
-72.68
-66.49
-55.05
-39.44
-21.56
-3.63
12.46
25.56
35.30
41.88
45.65
46.89
45.84
42.77
38.19
32.85
27.63
23.24
20.13
18.34
17.60
17.47
17.53
17.47
17.13
16.38
15.15
13.31
10.75
7.37
3.26
-1.38
-6.19
-10.80
-14.96
-18.61
-21.86
-24.88
-27.78
-30.56
-33.16
-35.55
-37.87
-40.38
-43.42
-47.15
-51.38
-55.39
-58.00
-57.75
-53.31
-43.87
-29.50
-11.19
9.30
29.89
48.73
64.55
76.74
85.27
90.35
92.22
91.14
87.42
81.59
74.38
66.66
59.22
52.60
47.00
42.27
38.08
33.99
29.63
24.69
19.09
12.89
6.27
-0.50
-7.27
-13.95
-20.55
-27.13
-33.68
-40.06
-46.06
-51.41
-55.90
-59.46
-62.22
-64.49
-66.72
-69.40
-72.99
-77.74
-83.48
-89.56
-94.79
-97.66
-96.65
-90.70
-79.58
-63.98
-45.38
-25.61
-6.46
10.71
25.12
36.48
44.84
50.45
53.65
54.90
54.70
53.58
52.04
50.43
48.95
47.66
46.55
45.58
44.74
44.02
43.34
42.54
41.36
39.57
36.97
33.56
29.45
24.88
20.11
15.36
10.78
6.40
2.18
-1.97
-6.15
-10.44
-14.87
-19.46
-24.32
-29.66
-35.81
-43.02
-51.25
-59.90
-67.80
-73.37
-75.04
-71.77
-63.34
-50.47
-34.58
-17.45
-0.74
14.24
26.66
36.19
42.83
46.78
48.39
48.03
46.15
43.27
39.94
36.70
34.00
32.07
30.89
30.19
29.61
28.86
27.83
26.55
25.12
23.59
21.90
19.92
17.54
14.72
11.53
8.08
4.55
1.14
-1.90
-4.34
-6.12
-7.39
-8.66
-10.70
-14.34
-20.23
-28.67
-39.51
-52.11
-65.32
-77.55
-86.91
-91.53
-90.03
-82.00
-68.17
-50.33
-30.80
-11.82
4.97
18.75
29.51
37.75
44.16
49.33
53.60
56.92
59.00
59.39
57.81
54.38
49.65
44.53
40.02
36.81
35.05
34.26
33.59
32.13
29.31
25.08
19.80
13.99
8.07
2.20
-3.65
-9.51
-15.21
-20.42
-24.76
-28.08
-30.54
-32.56
-34.63
-37.02
-39.78
-42.83
-46.09
-49.64
-53.47
-57.34
-60.44
-61.58
-59.43
-53.06
-42.43
-28.41
-12.60
3.14
17.25
28.76
37.33
43.09
46.42
47.72
47.41
45.97
43.94
41.92
40.45
39.81
39.90
40.24
40.19
39.24
37.19
34.22
30.79
27.33
24.03
20.82
17.42
13.61
9.38
4.88
0.40
-3.89
-7.91
-11.76
-15.51
-19.21
-22.88
-26.60
-30.65
-35.42
-41.25
-48.21
-55.79
-62.87
-67.92
-69.36
-66.05
-57.73
-45.10
-29.64
-13.23
2.43
16.18
27.45
36.22
42.64
46.86
49.06
49.39
48.20
46.03
43.49
41.14
39.28
38.02
37.20
36.61
36.01
35.22
34.13
32.68
30.84
28.60
25.92
22.78
19.19
15.15
10.73
6.06
1.30
-3.40
-7.90
-12.15
-16.12
-19.86
-23.42
-26.92
-30.49
-34.33
-38.57
-43.16
-47.83
-51.93
-54.52
-54.50
-50.95
-43.34
-31.79
-17.04
-0.34
16.86
33.17
47.47
59.01
67.39
72.48
74.38
73.35
69.86
64.52
58.09
51.39
45.18
40.03
36.29
34.00
33.00
32.90
33.22
33.42
32.94
31.29
28.10
23.23
16.70
8.75
-0.25
-9.84
-19.47
-28.56
-36.58
-43.09
-47.88
-50.99
-52.73
-53.65
-54.42
-55.74
-58.19
-62.13
-67.47
-73.62
-79.44
-83.39
-83.94
-79.95
-71.16
-58.22
-42.60
-26.08
-10.31
3.65
15.35
24.82
32.27
37.82
41.50
43.32
43.42
42.17
40.13
37.89
35.85
34.22
32.95
31.86
30.74
29.40
27.69
25.57
23.05
20.32
17.60
15.17
13.18
11.60
10.22
8.72
6.83
4.48
1.84
-0.79
-3.09
-4.90
-6.37
-7.85
-9.89
-13.01
-17.60
-23.80
-31.38
-39.72
-47.76
-54.12
-57.37
-56.38
-50.72
-40.84
-28.01
-13.95
-0.36
11.44
20.74
27.40
31.64
33.79
34.16
32.99
30.49
26.93
22.74
18.43
14.51
11.38
9.24
8.04
7.60
7.65
7.89
8.10
8.03
7.46
6.22
4.26
1.67
-1.33
-4.52
-7.72
-10.87
-14.03
-17.23
-20.45
-23.57
-26.39
-28.75
-30.62
-32.17
-33.71
-35.65
-38.36
-42.13
-47.00
-52.61
-58.09
-62.18
-63.45
-60.74
-53.61
-42.53
-28.77
-13.99
0.24
12.85
23.38
31.78
38.27
43.06
46.28
47.98
48.22
47.12
44.93
42.01
38.79
35.67
32.91
30.59
28.65
26.94
25.30
23.64
21.94
20.18
18.24
15.97
13.19
9.79
5.78
1.34
-3.24
-7.66
-11.74
-15.42
-18.84
-22.24
-25.84
-29.81
-34.21
-38.96
-43.88
-48.59
-52.44
-54.54
-53.83
-49.47
-41.10
-29.14
-14.73
0.58
15.20
28.00
38.35
46.11
51.37
54.30
55.05
53.82
51.08
47.39
43.54
40.21
37.89
36.74
36.60
37.07
37.67
37.98
37.74
36.92
35.64
34.05
32.17
29.78
26.59
22.36
17.11
11.19
5.16
-0.49
-5.54
-10.13
-14.70
-19.73
-25.66
-32.71
-40.81
-49.62
-58.43
-66.18
-71.54
-73.19
-70.21
-62.45
-50.70
-36.45
-21.51
-7.43
4.77
14.75
22.58
28.56
32.88
35.65
36.93
36.82
35.60
33.68
31.52
29.54
27.99
26.95
26.30
25.81
25.24
24.36
23.06
21.32
19.16
16.57
13.53
9.95
5.80
1.10
-3.93
-8.98
-13.67
-17.76
-21.23
-24.35
-27.58
-31.39
-36.12
-41.88
-48.51
-55.60
-62.46
-68.16
-71.62
-71.78
-67.94
-59.94
-48.44
-34.66
-20.14
-6.27
6.00
16.24
24.46
30.79
35.30
37.93
38.64
37.54
35.04
31.85
28.75
26.35
24.87
24.09
23.62
23.01
22.03
20.68
19.08
17.30
15.27
12.81
9.70
5.82
1.28
-3.70
-8.74
-13.50
-17.75
-21.44
-24.64
-27.51
-30.25
-33.08
-36.25
-40.01
-44.57
-49.85
-55.43
-60.42
-63.52
-63.43
-59.21
-50.70
-38.63
-24.43
-9.80
3.81
15.51
25.01
32.44
38.01
41.76
43.59
43.40
41.38
38.09
34.40
31.14
28.87
27.68
27.25
27.09
26.77
26.12
25.17
24.06
22.87
21.52
19.81
17.50
14.44
10.69
6.46
2.07
-2.16
-6.10
-9.78
-13.49
-17.55
-22.19
-27.48
-33.30
-39.40
-45.41
-50.86
-54.99
-56.87
-55.49
-50.11
-40.66
-27.92
-13.36
1.29
14.60
25.74
34.55
41.20
45.86
48.53
49.08
47.55
44.34
40.28
36.38
33.49
31.96
31.62
31.89
32.09
31.78
30.82
29.38
27.69
25.89
23.87
21.33
17.96
13.59
8.30
2.39
-3.68
-9.50
-14.84
-19.65
-24.17
-28.73
-33.73
-39.42
-45.88
-52.87
-59.81
-65.82
-69.77
-70.56
-67.35
-59.90
-48.66
-34.76
-19.70
-5.01
8.16
19.15
27.81
34.26
38.66
41.13
41.75
40.74
38.56
35.90
33.45
31.68
30.65
30.06
29.37
28.17
26.29
23.93
21.41
19.03
16.84
14.62
11.95
8.45
3.91
-1.58
-7.60
-13.52
-18.71
-22.69
-25.29
-26.71
-27.47
-28.25
-29.70
-32.29
-36.10
-40.76
-45.36
-48.57
-49.03
-45.64
-38.05
-26.73
-12.92
1.77
15.89
28.42
38.88
47.17
53.27
57.14
58.69
57.86
54.85
50.16
44.50
38.63
33.14
28.37
24.35
20.93
17.88
15.02
12.26
9.57
6.95
4.31
1.50
-1.71
-5.54
-10.07
-15.19
-20.57
-25.76
-30.34
-34.07
-36.97
-39.35
-41.69
-44.53
-48.21
-52.93
-58.63
-65.04
-71.68
-77.79
-82.35
-84.14
-82.12
-75.66
-64.91
-50.80
-34.84
-18.69
-3.69
9.35
20.23
29.04
36.01
41.28
44.93
47.07
47.94
47.94
47.54
47.19
47.14
47.44
48.05
48.87
49.85
50.97
52.23
53.57
54.79
55.69
56.04
55.68
54.59
52.85
50.59
47.96
45.02
41.76
38.15
34.11
29.59
24.55
18.94
12.68
5.62
-2.42
-11.58
-21.91
-33.15
-44.61
-55.17
-63.35
-67.71
-67.29
-61.98
-52.74
-41.30
-29.65
-19.48
-11.65
-6.27
-2.93
-1.14
-0.61
-1.32
-3.24
-6.15
-9.48
-12.48
-14.47
-15.05
-14.26
-12.41
-9.92
-7.21
-4.52
-2.02
0.17
1.96
3.23
3.90
3.98
3.57
2.80
1.79
0.56
-0.88
-2.57
-4.42
-6.27
-7.91
-9.19
-10.16
-11.08
-12.39
-14.55
-17.86
-22.26
-27.21
-31.72
-34.49
-34.22
-30.03
-21.74
-10.03
3.75
17.92
31.00
41.99
50.50
56.60
60.58
62.69
63.08
61.80
58.94
54.72
49.57
44.06
38.73
34.01
30.03
26.71
23.76
20.86
17.74
14.24
10.29
5.84
0.92
-4.45
-10.11
-15.83
-21.31
-26.29
-30.67
-34.51
-37.95
-41.21
-44.40
-47.55
-50.64
-53.58
-56.37
-59.08
-61.91
-65.09
-68.73
-72.70
-76.42
-78.89
-78.88
-75.28
-67.48
-55.73
-41.05
-25.05
-9.39
4.66
16.43
25.85
33.12
38.48
42.03
43.78
43.81
42.46
40.33
38.17
36.66
36.18
36.77
38.11
39.68
40.94
41.46
40.94
39.33
36.73
33.29
29.20
24.57
19.49
14.05
8.42
2.79
-2.65
-7.79
-12.63
-17.18
-21.52
-25.66
-29.63
-33.51
-37.47
-41.71
-46.42
-51.56
-56.82
-61.52
-64.69
-65.23
-62.20
-55.17
-44.41
-30.94
-16.28
-1.97
10.74
21.19
29.27
35.09
38.78
40.39
40.01
38.01
35.08
32.13
29.99
29.13
29.47
30.55
31.80
32.77
33.28
33.39
33.23
32.91
32.41
31.60
30.26
28.19
25.28
21.63
17.54
13.39
9.48
5.89
2.46
-1.20
-5.46
-10.61
-16.74
-23.69
-31.09
-38.26
-44.24
-47.86
-48.10
-44.36
-36.83
-26.41
-14.54
-2.70
7.96
16.82
23.74
28.78
32.05
33.57
33.37
31.62
28.73
25.33
22.13
19.67
18.20
17.62
17.57
17.65
17.59
17.29
16.84
16.32
15.73
14.88
13.53
11.33
8.15
3.99
-0.90
-6.19
-11.49
-16.55
-21.29
-25.88
-30.67
-36.08
-42.50
-50.08
-58.60
-67.40
-75.39
-81.25
-83.71
-81.81
-75.28
-64.59
-50.89
-35.72
-20.61
-6.77
5.14
14.90
22.60
28.46
32.65
35.28
36.53
36.63
35.99
35.06
34.22
33.62
33.15
32.56
31.58
30.04
27.97
25.48
22.68
19.57
16.02
11.84
6.88
1.13
-5.26
-11.97
-18.63
-24.88
-30.55
-35.67
-40.53
-45.59
-51.41
-58.42
-66.74
-75.98
-85.17
-92.72
-96.69
-95.32
-87.55
-73.45
-54.40
-32.74
-11.17
8.03
23.48
34.93
42.94
48.45
52.33
55.07
56.81
57.59
57.47
56.70
55.67
54.66
53.80
52.88
51.59
49.62
46.86
43.43
39.63
35.76
32.04
28.55
25.23
22.00
18.73
15.29
11.56
7.45
2.90
-2.08
-7.44
-13.13
-19.10
-25.34
-31.87
-38.71
-45.79
-52.89
-59.59
-65.20
-68.87
-69.72
-67.14
-61.03
-51.87
-40.68
-28.67
-16.94
-6.23
3.14
11.06
17.46
22.18
25.03
25.95
25.23
23.43
21.28
19.41
18.20
17.71
17.85
18.50
19.63
21.29
23.47
25.88
28.03
29.19
28.70
26.16
21.62
15.61
9.00
2.72
-2.55
-6.59
-9.69
-12.47
-15.61
-19.63
-24.69
-30.54
-36.57
-41.86
-45.29
-45.70
-42.22
-34.51
-22.99
-8.77
6.63
21.73
35.35
46.77
55.63
61.73
64.91
65.12
62.54
57.73
51.60
45.24
39.60
35.27
32.33
30.43
29.03
27.65
25.99
23.98
21.70
19.18
16.31
12.88
8.68
3.60
-2.23
-8.46
-14.60
-20.23
-25.15
-29.45
-33.49
-37.75
-42.69
-48.56
-55.32
-62.58
-69.58
-75.23
-78.32
-77.73
-72.79
-63.52
-50.74
-35.85
-20.46
-5.97
6.78
17.54
26.43
33.71
39.43
43.46
45.65
46.01
44.90
42.96
40.97
39.46
38.64
38.31
38.02
37.33
36.06
34.23
32.07
29.83
27.61
25.34
22.72
19.47
15.42
10.60
5.24
-0.30
-5.68
-10.75
-15.56
-20.31
-25.19
-30.35
-35.79
-41.46
-47.28
-53.09
-58.52
-62.85
-65.04
-63.95
-58.76
-49.38
-36.54
-21.61
-6.20
8.34
21.14
31.83
40.37
46.73
50.89
52.80
52.58
50.59
47.43
43.83
40.40
37.61
35.63
34.42
33.83
33.62
33.55
33.37
32.80
31.56
29.45
26.39
22.48
17.92
12.98
7.88
2.74
-2.42
-7.59
-12.70
-17.62
-22.23
-26.51
-30.58
-34.69
-39.07
-43.87
-49.10
-54.62
-60.20
-65.32
-69.24
-71.01
-69.66
-64.57
-55.81
-44.25
-31.41
-19.02
-8.55
-0.86
3.92
6.17
6.53
5.70
4.25
2.67
1.41
0.94
1.73
4.11
8.25
14.00
21.05
28.93
37.22
45.57
53.58
60.86
66.91
71.24
73.55
73.87
72.66
70.64
68.58
67.04
66.22
65.99
66.01
65.88
65.24
63.89
61.67
58.55
54.58
49.82
44.33
38.25
31.76
25.24
19.41
15.18
13.49
14.99
19.71
27.00
35.72
44.54
52.38
58.48
62.50
64.30
63.81
60.99
55.91
48.87
40.41
31.23
22.08
13.50
5.76
-1.16
-7.51
-13.65
-19.96
-26.71
-34.05
-41.91
-50.07
-58.13
-65.64
-72.18
-77.54
-81.70
-84.93
-87.52
-89.70
-91.54
-92.90
-93.60
-93.57
-92.86
-91.71
-90.43
-89.29
-88.52
-88.25
-88.46
-88.89
-88.93
-87.61
-83.85
-76.79
-66.13
-52.44
-36.98
-21.32
-6.95
5.11
14.39
20.81
24.56
25.97
25.48
23.72
21.46
19.48
18.36
18.28
19.01
20.02
20.74
20.72
19.83
18.18
16.04
13.71
11.41
9.24
7.15
4.98
2.61
-0.05
-2.96
-6.07
-9.27
-12.51
-15.82
-19.28
-22.96
-26.92
-31.16
-35.55
-39.81
-43.36
-45.40
-45.04
-41.53
-34.58
-24.54
-12.38
0.58
12.97
23.75
32.30
38.38
41.98
43.17
42.14
39.24
35.07
30.44
26.19
22.97
21.02
20.18
19.96
19.80
19.27
18.22
16.70
14.87
12.82
10.44
7.49
3.73
-0.91
-6.24
-11.80
-17.09
-21.69
-25.51
-28.77
-31.93
-35.54
-40.02
-45.49
-51.64
-57.68
-62.38
-64.42
-62.73
-56.86
-47.21
-34.90
-21.50
-8.49
2.98
12.28
19.16
23.56
25.54
25.21
22.91
19.27
15.19
11.62
9.27
8.42
8.83
9.95
11.15
12.02
12.47
12.57
12.47
12.06
11.09
9.23
6.39
2.79
-1.01
-4.32
-6.65
-7.92
-8.51
-9.17
-10.79
-14.18
-19.88
-28.02
-38.18
-49.26
-59.47
-66.61
-68.52
-63.84
-52.51
-35.98
-16.78
2.17
18.49
30.85
39.15
44.08
46.61
47.54
47.33
46.16
44.17
41.59
38.73
35.94
33.38
30.99
28.59
25.94
22.94
19.66
16.31
13.11
10.13
7.24
4.08
0.24
-4.59
-10.44
-16.98
-23.56
-29.50
-34.27
-37.80
-40.44
-42.89
-45.94
-50.12
-55.54
-61.70
-67.56
-71.72
-72.77
-69.69
-62.14
-50.63
-36.40
-21.09
-6.28
6.86
17.72
26.16
32.31
36.43
38.78
39.70
39.58
38.86
37.95
37.05
36.15
35.01
33.42
31.25
28.66
25.93
23.44
21.39
19.74
18.20
16.39
13.93
10.59
6.31
1.24
-4.34
-10.06
-15.54
-20.46
-24.69
-28.37
-31.89
-35.80
-40.54
-46.22
-52.38
-57.97
-61.62
-62.03
-58.37
-50.59
-39.42
-26.04
-11.85
1.97
14.55
25.35
34.03
40.42
44.46
46.31
46.34
45.10
43.29
41.55
40.38
40.02
40.38
41.13
41.79
41.94
41.32
39.94
37.99
35.67
33.03
29.93
26.10
21.39
15.82
9.74
3.61
-2.18
-7.48
-12.49
-17.62
-23.31
-29.85
-37.29
-45.38
-53.55
-60.91
-66.28
-68.42
-66.32
-59.60
-48.69
-34.80
-19.60
-4.72
8.64
19.88
28.91
35.90
40.99
44.22
45.56
45.11
43.23
40.55
37.83
35.71
34.53
34.25
34.54
34.90
34.88
34.18
32.70
30.45
27.59
24.25
20.54
16.49
12.11
7.38
2.38
-2.77
-7.90
-12.86
-17.57
-22.13
-26.70
-31.48
-36.71
-42.52
-49.04
-56.30
-64.08
-71.79
-78.38
-82.45
-82.60
-77.88
-68.17
-54.28
-37.74
-20.34
-3.64
11.36
24.19
34.83
43.37
49.84
54.23
56.59
57.12
56.25
54.61
52.81
51.27
50.10
49.22
48.40
47.46
46.41
45.29
44.16
42.93
41.32
38.97
35.59
31.15
25.84
20.10
14.37
9.02
4.16
-0.34
-4.78
-9.47
-14.57
-20.02
-25.55
-30.90
-35.96
-40.95
-46.33
-52.64
-60.25
-69.14
-78.79
-88.16
-95.91
-100.60
-101.04
-96.45
-86.67
-72.15
-53.91
-33.28
-11.71
9.45
29.09
46.36
60.68
71.71
79.32
83.73
85.45
85.28
84.20
83.13
82.73
83.24
84.46
85.85
86.74
86.51
84.76
81.34
76.36
70.08
62.84
54.98
46.85
38.81
31.20
24.31
18.26
12.98
8.18
3.42
-1.73
-7.57
-14.17
-21.41
-28.98
-36.48
-43.50
-49.64
-54.62
-58.35
-60.99
-62.92
-64.73
-66.96
-69.91
-73.36
-76.56
-78.24
-76.98
-71.66
-61.78
-47.73
-30.68
-12.26
5.88
22.48
36.69
48.16
56.75
62.39
65.16
65.32
63.41
60.31
57.00
54.38
52.91
52.61
53.10
53.82
54.22
53.93
52.71
50.44
47.08
42.58
36.94
30.24
22.63
14.36
5.80
-2.62
-10.47
-17.32
-22.88
-27.04
-29.93
-31.87
-33.28
-34.53
-35.80
-37.06
-38.08
-38.61
-38.62
-38.42
-38.65
-40.06
-43.02
-47.16
-51.23
-53.31
-51.46
-44.45
-32.27
-16.29
1.25
18.09
32.73
44.77
54.79
63.74
72.43
81.36
90.86
101.35
113.28
126.29
138.49
146.34
145.63
133.42
109.53
76.85
40.00
3.35
-30.47
-60.61
-86.82
-108.11
-122.46
-127.70
-123.17
-110.69
-94.27
-78.51
-66.77
-60.11
-57.56
-57.08
-56.85
-55.94
-54.16
-51.71
-48.56
-44.26
-38.20
-30.23
-21.16
-12.78
-7.36
-6.64
-11.11
-19.65
-29.93
-39.15
-44.90
-45.77
-41.71
-34.03
-24.90
-16.66
-10.91
-7.82
-6.04
-3.39
2.16
11.50
24.16
38.85
54.39
70.26
86.53
103.16
119.50
134.07
144.95
150.66
150.85
146.54
139.33
130.52
120.54
109.10
95.82
80.41
62.95
43.82
23.76
3.85
-14.52
-29.59
-39.41
-42.68
-40.32
-35.75
-33.57
-37.44
-48.31
-63.86
-79.31
-89.03
-88.71
-78.08
-61.42
-46.16
-39.59
-46.15
-66.03
-95.20
-126.83
-149.50
-152.76
-132.53
-94.60
-50.49
-10.15
21.97
46.11
64.31
78.05
87.28
90.09
84.04
68.47
44.93
16.18
-15.05
-46.66
-77.83
-110.03
-143.89
-181.19
-223.58
-272.23
-327.46
-387.64
-447.82
-499.18
-530.58
-531.34
-495.07
-422.18
-321.44
-209.10
-105.15
-27.47
13.77
19.41
0.84
-24.46
-38.88
-30.35
4.57
61.29
130.57
202.73
270.75
331.69
386.24
437.67
489.69
543.94
597.89
644.08
671.92
671.04
635.14
564.45
466.28
353.29
240.51
141.87
66.89
18.54
-7.32
-20.30
-31.57
-49.12
-74.50
-102.90
-126.26
-137.94
-136.17
-124.27
-108.07
-92.47
-79.37
-68.02
-57.09
-46.61
-38.51
-35.59
-39.44
-49.10
-60.93
-70.23
-73.48
-69.92
-61.87
-53.41
-48.28
-48.07
-51.55
-55.51
-56.53
-52.67
-44.35
-33.98
-24.70
-18.89
-17.07
-17.91
-19.06
-18.35
-14.75
-8.71
-1.78
4.23
8.02
9.29
8.65
7.27
6.24
6.14
6.91
7.96
8.60
8.34
7.03
4.92
2.45
0.01
-2.22
-4.24
-6.27
-8.51
-11.11
-14.05
-17.13
-20.05
-22.55
-24.45
-25.85
-27.02
-28.30
-29.93
-31.99
-34.31
-36.60
-38.48
-39.54
-39.49
-38.07
-35.18
-30.92
-25.61
-19.75
-13.92
-8.59
-4.01
-0.24
2.82
5.28
7.17
8.50
9.21
9.36
9.07
8.58
8.14
7.91
7.95
8.15
8.35
8.37
8.09
7.45
6.52
5.43
4.32
3.26
2.23
1.06
-0.38
-2.22
-4.42
-6.77
-9.06
-11.05
-12.61
-13.79
-14.75
-15.77
-17.10
-18.98
-21.49
-24.51
-27.75
-30.71
-32.81
-33.55
-32.58
-29.84
-25.54
-20.13
-14.16
-8.19
-2.68
2.12
6.09
9.26
11.67
13.30
14.14
14.18
13.54
12.44
11.16
9.97
9.01
8.32
7.81
7.36
6.87
6.26
5.53
4.70
3.80
2.90
2.00
1.05
-0.06
-1.48
-3.27
-5.39
-7.68
-9.94
-12.00
-13.79
-15.45
-17.15
-19.09
-21.42
-24.15
-27.10
-29.97
-32.31
-33.64
-33.53
-31.68
-28.04
-22.85
-16.57
-9.77
-3.05
3.12
8.45
12.90
16.49
19.29
21.27
22.37
22.57
21.98
20.86
19.59
18.45
17.62
17.06
16.63
16.18
15.59
14.82
13.85
12.67
11.28
9.73
8.09
6.49
4.98
3.54
2.11
0.59
-1.09
-2.96
-4.95
-7.01
-9.07
-11.13
-13.17
-15.24
-17.36
-19.60
-21.95
-24.33
-26.48
-28.00
-28.36
-27.13
-24.12
-19.52
-13.88
-7.92
-2.27
2.59
6.57
9.76
12.35
14.45
16.08
17.14
17.55
17.32
16.59
15.67
14.89
14.55
14.78
15.50
16.49
17.45
18.13
18.37
18.12
17.42
16.40
15.17
13.80
12.30
10.65
8.80
6.73
4.48
2.15
-0.17
-2.38
-4.47
-6.47
-8.50
-10.67
-13.07
-15.74
-18.59
-21.48
-24.13
-26.24
-27.46
-27.44
-25.95
-22.90
-18.43
-12.97
-7.11
-1.49
3.38
7.24
10.10
12.14
13.55
14.42
14.73
14.44
13.58
12.32
10.96
9.79
9.01
8.70
8.76
9.03
9.39
9.77
10.14
10.46
10.65
10.59
10.23
9.54
8.60
7.51
6.34
5.11
3.84
2.54
1.26
0.04
-1.08
-2.15
-3.26
-4.47
-5.83
-7.34
-9.01
-10.89
-13.07
-15.56
-18.20
-20.57
-22.11
-22.27
-20.71
-17.48
-13.00
-7.88
-2.73
2.03
6.21
9.73
12.54
14.57
15.71
15.98
15.54
14.72
13.89
13.33
13.06
12.97
12.78
12.30
11.45
10.29
8.96
7.55
6.04
4.40
2.58
0.62
-1.38
-3.27
-4.94
-6.35
-7.59
-8.80
-10.11
-11.57
-13.16
-14.78
-16.26
-17.49
-18.40
-18.99
-19.39
-19.77
-20.30
-21.04
-21.89
-22.55
-22.54
-21.39
-18.79
-14.71
-9.48
-3.68
2.11
7.43
12.07
15.99
19.25
21.83
23.64
24.61
24.72
24.09
22.95
21.52
20.01
18.58
17.37
16.53
16.13
16.14
16.30
16.26
15.61
14.15
11.95
9.28
6.54
4.02
1.86
-0.00
-1.68
-3.28
-4.83
-6.33
-7.77
-9.13
-10.45
-11.79
-13.21
-14.73
-16.41
-18.25
-20.26
-22.45
-24.80
-27.21
-29.48
-31.29
-32.16
-31.60
-29.26
-25.12
-19.48
-12.96
-6.31
-0.22
4.90
8.87
11.81
13.96
15.56
16.75
17.54
17.85
17.66
17.07
16.32
15.75
15.60
15.93
16.57
17.22
17.61
17.68
17.51
17.22
16.84
16.25
15.20
13.57
11.43
9.07
6.81
4.87
3.23
1.65
-0.10
-2.14
-4.33
-6.41
-8.13
-9.45
-10.50
-11.57
-12.99
-14.97
-17.57
-20.67
-23.98
-27.06
-29.35
-30.31
-29.53
-26.90
-22.63
-17.29
-11.56
-6.13
-1.47
2.22
5.01
7.09
8.68
9.91
10.79
11.30
11.40
11.12
10.53
9.82
9.16
8.71
8.60
8.82
9.33
10.04
10.77
11.36
11.68
11.61
11.15
10.36
9.33
8.18
7.04
5.95
4.92
3.90
2.81
1.57
0.10
-1.60
-3.53
-5.58
-7.64
-9.60
-11.45
-13.30
-15.35
-17.80
-20.73
-23.99
-27.17
-29.73
-31.04
-30.66
-28.38
-24.35
-18.91
-12.60
-6.02
0.26
5.78
10.25
13.54
15.73
17.01
17.63
17.76
17.50
16.88
15.96
14.89
13.86
13.07
12.62
12.48
12.54
12.66
12.76
12.77
12.71
12.48
11.99
11.15
9.95
8.51
6.94
5.44
4.06
2.80
1.59
0.32
-1.06
-2.54
-4.07
-5.55
-6.92
-8.21
-9.55
-11.14
-13.18
-15.76
-18.80
-22.05
-25.21
-27.87
-29.61
-29.99
-28.66
-25.46
-20.57
-14.56
-8.20
-2.21
2.91
7.03
10.27
12.81
14.68
15.84
16.27
16.10
15.60
15.08
14.77
14.73
14.90
15.17
15.47
15.74
15.95
16.02
15.84
15.30
14.32
12.95
11.24
9.29
7.18
4.99
2.79
0.69
-1.23
-2.89
-4.25
-5.25
-5.91
-6.28
-6.45
-6.61
-6.92
-7.50
-8.44
-9.79
-11.57
-13.83
-16.61
-19.80
-23.13
-26.11
-28.14
-28.66
-27.34
-24.19
-19.56
-14.04
-8.33
-3.02
1.49
5.01
7.55
9.24
10.17
10.48
10.23
9.53
8.51
7.36
6.25
5.35
4.74
4.44
4.38
4.43
4.44
4.25
3.75
2.90
1.79
0.56
-0.62
-1.60
-2.33
-2.82
-3.14
-3.35
-3.50
-3.61
-3.77
-4.10
-4.71
-5.70
-7.09
-8.84
-10.94
-13.38
-16.16
-19.20
-22.21
-24.61
-25.71
-24.88
-21.87
-16.90
-10.66
-4.02
2.17
7.36
11.35
14.21
16.20
17.50
18.23
18.38
17.98
17.10
15.93
14.74
13.75
13.14
12.93
13.07
13.38
13.71
13.89
13.82
13.43
12.71
11.70
10.44
8.93
7.16
5.11
2.81
0.35
-2.19
-4.73
-7.27
-9.85
-12.50
-15.21
-17.94
-20.70
-23.58
-26.73
-30.24
-34.00
-37.55
-40.19
-41.14
-39.82
-35.99
-29.96
-22.39
-14.18
-6.19
0.95
6.88
11.51
14.93
17.28
18.70
19.29
19.17
18.52
17.60
16.70
16.09
15.92
16.20
16.78
17.43
17.85
17.81
17.19
16.01
14.39
12.54
10.59
8.60
6.52
4.28
1.83
-0.79
-3.52
-6.25
-8.89
-11.44
-13.93
-16.44
-19.10
-22.04
-25.40
-29.20
-33.32
-37.39
-40.82
-42.93
-43.03
-40.71
-35.93
-29.06
-20.79
-11.97
-3.41
4.26
10.65
15.60
19.14
21.33
22.31
22.28
21.54
20.49
19.59
19.21
19.53
20.40
21.44
22.18
22.28
21.69
20.55
19.13
17.63
16.05
14.22
11.95
9.13
5.85
2.36
-1.05
-4.17
-6.95
-9.49
-12.03
-14.77
-17.87
-21.46
-25.56
-30.12
-34.88
-39.37
-42.87
-44.58
-43.84
-40.28
-34.06
-25.78
-16.33
-6.66
2.41
10.34
16.83
21.78
25.18
27.07
27.54
26.77
25.16
23.22
21.52
20.53
20.39
20.95
21.78
22.44
22.66
22.39
21.76
20.93
19.88
18.47
16.43
13.63
10.07
6.02
1.84
-2.09
-5.55
-8.55
-11.31
-14.13
-17.38
-21.26
-25.84
-30.94
-36.13
-40.74
-44.01
-45.13
-43.54
-38.98
-31.73
-22.50
-12.33
-2.31
6.71
14.31
20.40
25.16
28.78
31.31
32.64
32.69
31.58
29.71
27.73
26.25
25.64
25.92
26.72
27.56
27.95
27.65
26.62
25.03
23.08
20.92
18.55
15.90
12.88
9.50
5.94
2.46
-0.60
-3.11
-5.19
-7.25
-9.84
-13.44
-18.32
-24.36
-31.14
-37.96
-43.91
-48.03
-49.41
-47.41
-41.92
-33.43
-23.02
-12.07
-1.84
6.81
13.63
18.80
22.68
25.52
27.37
28.19
27.98
27.02
25.79
24.80
24.42
24.67
25.30
25.88
26.06
25.58
24.46
22.83
20.93
18.95
16.97
14.94
12.68
10.03
6.90
3.39
-0.25
-3.72
-6.81
-9.50
-11.98
-14.51
-17.32
-20.53
-24.19
-28.24
-32.53
-36.77
-40.47
-42.91
-43.24
-40.78
-35.25
-26.98
-16.83
-6.01
4.28
13.18
20.23
25.37
28.75
30.57
31.01
30.29
28.68
26.62
24.61
23.14
22.53
22.76
23.52
24.32
24.67
24.25
23.00
21.16
19.08
17.09
15.39
13.98
12.67
11.28
9.63
7.69
5.54
3.36
1.30
-0.52
-2.15
-3.76
-5.64
-8.10
-11.41
-15.70
-20.94
-26.88
-32.99
-38.46
-42.33
-43.64
-41.72
-36.46
-28.38
-18.54
-8.24
1.40
9.61
16.18
21.18
24.83
27.33
28.77
29.25
28.95
28.15
27.21
26.42
25.96
25.84
25.98
26.25
26.57
26.90
27.23
27.54
27.71
27.57
26.91
25.55
23.45
20.70
17.58
14.43
11.49
8.86
6.37
3.77
0.80
-2.60
-6.28
-9.96
-13.40
-16.54
-19.55
-22.80
-26.71
-31.57
-37.37
-43.65
-49.53
-53.86
-55.52
-53.71
-48.25
-39.61
-28.80
-17.01
-5.36
5.28
14.42
21.81
27.41
31.31
33.69
34.83
35.05
34.70
34.08
33.38
32.72
32.11
31.51
30.93
30.39
29.97
29.77
29.80
29.91
29.83
29.16
27.60
25.06
21.73
18.04
14.52
11.54
9.26
7.53
5.96
4.16
1.83
-1.06
-4.34
-7.68
-10.80
-13.56
-16.03
-18.44
-21.08
-24.24
-28.06
-32.52
-37.31
-41.85
-45.28
-46.69
-45.28
-40.73
-33.27
-23.65
-12.94
-2.21
7.67
16.15
22.90
27.78
30.73
31.84
31.34
29.69
27.49
25.38
23.84
23.11
23.12
23.53
23.92
23.88
23.23
21.98
20.32
18.42
16.35
14.06
11.44
8.48
5.31
2.20
-0.58
-2.89
-4.83
-6.59
-8.42
-10.45
-12.64
-14.93
-17.22
-19.47
-21.67
-23.79
-25.80
-27.70
-29.59
-31.66
-34.16
-37.19
-40.58
-43.81
-46.05
-46.41
-44.17
-39.08
-31.42
-21.99
-11.80
-1.84
7.12
14.61
20.40
24.39
26.56
26.95
25.73
23.31
20.25
17.14
14.51
12.64
11.60
11.26
11.45
11.98
12.68
13.34
13.71
13.56
12.73
11.15
8.94
6.32
3.54
0.80
-1.77
-4.16
-6.36
-8.37
-10.18
-11.84
-13.39
-14.93
-16.58
-18.45
-20.63
-23.24
-26.33
-29.87
-33.65
-37.16
-39.69
-40.39
-38.56
-33.78
-26.14
-16.18
-4.83
6.85
17.83
27.27
34.68
39.81
42.73
43.67
42.98
41.12
38.62
36.01
33.72
32.03
30.95
30.32
29.88
29.36
28.60
27.46
25.89
23.77
21.06
17.78
14.06
10.11
6.18
2.39
-1.25
-4.78
-8.28
-11.75
-15.12
-18.25
-21.02
-23.47
-25.71
-28.01
-30.65
-33.87
-37.68
-41.92
-46.10
-49.46
-51.12
-50.23
-46.27
-39.20
-29.65
-18.73
-7.79
1.98
9.84
15.57
19.43
21.83
23.15
23.64
23.44
22.69
21.63
20.56
19.76
19.37
19.34
19.48
19.59
19.47
19.04
18.26
17.11
15.59
13.75
11.66
9.48
7.27
5.03
2.66
0.00
-3.00
-6.34
-9.84
-13.31
-16.60
-19.71
-22.73
-25.86
-29.29
-33.15
-37.46
-42.01
-46.39
-49.89
-51.63
-50.78
-46.84
-39.83
-30.39
-19.63
-8.79
1.06
9.29
15.70
20.45
23.74
25.78
26.63
26.41
25.34
23.80
22.27
21.14
20.56
20.43
20.44
20.24
19.59
18.44
16.85
14.99
12.96
10.84
8.63
6.32
3.90
1.39
-1.19
-3.77
-6.35
-8.94
-11.58
-14.27
-17.02
-19.78
-22.50
-25.19
-27.96
-30.97
-34.42
-38.36
-42.60
-46.62
-49.55
-50.43
-48.48
-43.38
-35.47
-25.67
-15.18
-5.16
3.59
10.71
16.17
20.14
22.74
24.03
24.08
23.05
21.29
19.32
17.60
16.49
16.05
16.10
16.29
16.29
15.90
15.10
14.03
12.82
11.51
10.00
8.12
5.71
2.73
-0.71
-4.34
-7.89
-11.18
-14.16
-16.89
-19.50
-22.15
-24.97
-28.08
-31.54
-35.31
-39.20
-42.73
-45.22
-45.84
-43.87
-38.99
-31.40
-21.82
-11.25
-0.72
8.96
17.33
24.19
29.46
33.07
34.93
35.07
33.73
31.36
28.64
26.20
24.49
23.67
23.55
23.78
23.96
23.77
23.10
21.97
20.52
18.83
17.02
15.14
13.20
11.21
9.18
7.08
4.89
2.52
-0.13
-3.20
-6.80
-11.06
-16.06
-21.78
-28.12
-34.75
-41.15
-46.57
-50.15
-51.13
-49.04
-43.86
-36.12
-26.72
-16.74
-7.12
1.52
8.98
15.31
20.67
25.17
28.74
31.25
32.61
32.87
32.28
31.26
30.25
29.60
29.46
29.77
30.24
30.58
30.49
29.82
28.56
26.83
24.80
22.64
20.43
18.20
15.89
13.40
10.74
7.91
5.02
2.17
-0.61
-3.33
-6.13
-9.14
-12.48
-16.19
-20.31
-24.81
-29.55
-34.14
-37.92
-40.03
-39.62
-36.19
-29.77
-21.00
-10.90
-0.60
9.02
17.43
24.42
29.95
33.98
36.46
37.34
36.72
34.86
32.14
28.99
25.73
22.56
19.56
16.76
14.23
12.01
10.06
8.24
6.33
4.07
1.36
-1.75
-4.99
-8.07
-10.71
-12.83
-14.50
-15.91
-17.28
-18.76
-20.50
-22.70
-25.57
-29.37
-34.27
-40.25
-47.00
-54.02
-60.66
-66.20
-69.99
-71.39
-69.84
-65.00
-56.82
-45.71
-32.51
-18.37
-4.51
8.03
18.53
26.63
32.24
35.44
36.46
35.62
33.42
30.55
27.79
25.90
25.45
26.66
29.35
32.93
36.65
39.77
41.79
42.55
42.20
40.97
39.02
36.36
32.93
28.69
23.84
18.76
13.87
9.47
5.61
2.11
-1.33
-5.00
-9.08
-13.68
-18.86
-24.64
-30.88
-37.16
-42.70
-46.49
-47.52
-45.16
-39.40
-30.89
-20.80
-10.40
-0.71
7.68
14.65
20.32
24.86
28.27
30.43
31.20
30.60
28.91
26.66
24.42
22.63
21.42
20.65
20.00
19.17
17.98
16.45
14.63
12.62
10.48
8.21
5.85
3.49
1.21
-0.96
-3.11
-5.38
-7.92
-10.77
-13.85
-16.99
-20.06
-22.99
-25.85
-28.85
-32.18
-36.03
-40.39
-44.96
-49.16
-52.14
-53.02
-51.09
-46.07
-38.28
-28.48
-17.71
-6.95
3.10
12.03
19.70
26.10
31.22
35.03
37.47
38.57
38.48
37.54
36.29
35.30
35.06
35.74
37.14
38.74
39.87
40.01
38.92
36.68
33.54
29.78
25.61
21.13
16.48
11.82
7.37
3.36
-0.13
-3.21
-6.09
-9.01
-12.09
-15.31
-18.47
-21.37
-23.87
-26.14
-28.52
-31.51
-35.49
-40.45
-45.84
-50.69
-53.77
-53.99
-50.75
-44.15
-34.94
-24.29
-13.47
-3.49
5.08
12.12
17.81
22.36
25.91
28.43
29.87
30.20
29.63
28.52
27.27
26.19
25.42
24.88
24.43
23.94
23.39
22.82
22.22
21.46
20.34
18.62
16.14
12.93
9.24
5.41
1.83
-1.30
-3.96
-6.28
-8.50
-10.79
-13.19
-15.61
-17.90
-19.98
-21.91
-23.93
-26.38
-29.55
-33.55
-38.23
-43.10
-47.41
-50.24
-50.66
-47.98
-41.98
-32.95
-21.72
-9.47
2.55
13.27
22.02
28.47
32.63
34.64
34.75
33.31
30.79
27.79
24.99
22.99
22.17
22.66
24.27
26.57
29.04
31.16
32.52
32.86
32.08
30.20
27.37
23.77
19.72
15.54
11.64
8.41
6.06
4.61
3.83
3.39
2.95
2.25
1.14
-0.44
-2.54
-5.24
-8.59
-12.58
-17.18
-22.23
-27.53
-32.67
-37.10
-40.06
-40.82
-38.86
-34.12
-27.13
-18.84
-10.38
-2.68
3.68
8.53
11.96
14.18
15.39
15.73
15.36
14.44
13.23
11.95
10.83
9.97
9.44
9.21
9.19
9.23
9.15
8.75
7.88
6.51
4.70
2.61
0.38
-1.87
-4.11
-6.36
-8.64
-10.95
-13.29
-15.64
-17.97
-20.24
-22.43
-24.51
-26.45
-28.30
-30.18
-32.24
-34.65
-37.53
-40.81
-44.21
-47.16
-48.89
-48.63
-45.81
-40.31
-32.59
-23.47
-13.97
-4.99
2.86
9.33
14.39
18.07
20.36
21.24
20.80
19.32
17.23
15.12
13.49
12.66
12.65
13.22
13.99
14.62
14.90
14.80
14.40
13.81
13.05
12.02
10.55
8.55
6.07
3.32
0.61
-1.78
-3.74
-5.37
-6.94
-8.73
-10.95
-13.69
-16.88
-20.43
-24.19
-27.97
-31.41
-33.93
-34.84
-33.52
-29.65
-23.38
-15.32
-6.41
2.41
10.36
17.00
22.17
25.85
28.10
28.95
28.52
26.99
24.77
22.39
20.38
19.10
18.67
18.92
19.51
20.10
20.43
20.37
19.88
18.98
17.69
16.06
14.13
11.99
9.71
7.27
4.67
1.92
-0.94
-3.79
-6.57
-9.31
-12.12
-15.21
-18.73
-22.74
-27.13
-31.69
-36.06
-39.78
-42.31
-43.11
-41.70
-37.93
-32.01
-24.55
-16.44
-8.51
-1.38
4.64
9.48
13.13
15.55
16.70
16.62
15.50
13.75
11.86
10.28
9.28
8.91
9.03
9.40
9.73
9.80
9.52
8.88
7.98
6.91
5.72
4.38
2.76
0.81
-1.50
-4.04
-6.60
-8.99
-11.08
-12.93
-14.74
-16.77
-19.30
-22.52
-26.43
-30.80
-35.16
-38.76
-40.74
-40.35
-37.16
-31.26
-23.26
-14.14
-4.91
3.59
10.90
16.87
21.55
25.05
27.41
28.70
29.02
28.58
27.65
26.55
25.52
24.71
24.18
23.87
23.68
23.44
23.02
22.30
21.23
19.80
18.02
15.90
13.42
10.62
7.49
4.14
0.68
-2.71
-5.86
-8.67
-11.19
-13.64
-16.31
-19.50
-23.37
-27.93
-33.00
-38.24
-43.18
-47.22
-49.67
-49.81
-47.19
-41.73
-33.93
-24.72
-15.24
-6.46
1.03
7.07
11.85
15.63
18.59
20.77
22.15
22.74
22.68
22.24
21.71
21.32
21.14
21.09
21.00
20.70
20.12
19.32
18.38
17.36
16.21
14.81
13.04
10.79
8.05
4.90
1.47
-2.04
-5.45
-8.59
-11.37
-13.79
-15.99
-18.16
-20.53
-23.26
-26.43
-30.02
-33.87
-37.70
-41.01
-43.17
-43.46
-41.33
-36.57
-29.45
-20.68
-11.21
-1.96
6.37
13.38
18.93
23.06
25.86
27.44
27.93
27.55
26.58
25.41
24.31
23.47
22.94
22.60
22.29
21.83
21.14
20.24
19.27
18.33
17.51
16.76
15.92
14.87
13.50
11.84
9.94
7.93
5.83
3.69
1.49
-0.80
-3.16
-5.58
-8.09
-10.76
-13.69
-17.02
-20.75
-24.74
-28.63
-31.80
-33.52
-33.10
-30.10
-24.54
-16.93
-8.18
0.65
8.62
15.12
19.95
23.21
25.18
26.14
26.27
25.68
24.47
22.86
21.14
19.63
18.55
17.97
17.70
17.43
16.92
16.04
14.89
13.62
12.40
11.20
9.88
8.25
6.17
3.72
1.07
-1.58
-4.13
-6.58
-9.06
-11.64
-14.31
-16.98
-19.54
-21.98
-24.39
-26.97
-29.94
-33.37
-37.15
-40.85
-43.82
-45.19
-44.20
-40.37
-33.74
-24.86
-14.61
-3.95
6.40
15.95
24.49
31.86
37.93
42.61
45.95
48.18
49.72
51.00
52.26
53.56
54.71
55.37
55.14
53.70
50.85
46.58
41.08
34.74
28.03
21.39
15.12
9.31
3.92
-1.20
-6.12
-10.87
-15.35
-19.45
-23.07
-26.20
-28.89
-31.26
-33.49
-35.74
-38.19
-40.91
-43.89
-46.89
-49.40
-50.69
-50.00
-46.74
-40.78
-32.60
-23.15
-13.61
-4.98
2.07
7.34
10.90
12.94
13.67
13.27
11.98
10.16
8.24
6.67
5.82
5.84
6.65
7.98
9.44
10.60
11.18
11.07
10.39
9.44
8.50
7.74
7.07
6.23
4.94
3.06
0.68
-1.94
-4.51
-6.89
-9.09
-11.26
-13.60
-16.23
-19.19
-22.43
-25.88
-29.38
-32.61
-35.10
-36.16
-35.18
-31.78
-26.05
-18.60
-10.41
-2.51
4.30
9.62
13.43
15.90
17.25
17.61
17.10
15.87
14.21
12.53
11.24
10.55
10.49
10.82
11.21
11.35
11.07
10.37
9.40
8.38
7.46
6.75
6.22
5.75
5.18
4.33
3.06
1.36
-0.65
-2.74
-4.69
-6.41
-8.00
-9.72
-11.85
-14.53
-17.73
-21.18
-24.42
-26.93
-28.14
-27.58
-24.91
-20.11
-13.52
-5.85
1.98
9.13
15.01
19.40
22.38
24.16
24.97
25.00
24.42
23.48
22.52
21.94
21.97
22.65
23.75
24.86
25.58
25.70
25.23
24.39
23.44
22.55
21.70
20.71
19.31
17.27
14.51
11.11
7.30
3.32
-0.64
-4.54
-8.51
-12.76
-17.45
-22.65
-28.28
-34.09
-39.70
-44.58
-48.11
-49.64
-48.64
-44.95
-38.87
-31.17
-22.81
-14.72
-7.57
-1.69
2.79
5.83
7.45
7.73
6.93
5.51
4.04
3.00
2.62
2.81
3.26
3.59
3.59
3.25
2.72
2.21
1.84
1.54
1.14
0.44
-0.68
-2.23
-4.08
-6.10
-8.16
-10.23
-12.34
-14.55
-16.95
-19.59
-22.56
-25.84
-29.27
-32.46
-34.71
-35.19
-33.21
-28.50
-21.35
-12.60
-3.37
5.33
12.74
18.57
22.79
25.51
26.85
26.86
25.70
23.70
21.31
19.08
17.43
16.53
16.26
16.32
16.39
16.22
15.76
15.04
14.06
12.77
11.03
8.74
5.87
2.53
-1.06
-4.71
-8.30
-11.84
-15.50
-19.49
-24.01
-29.10
-34.61
-40.18
-45.23
-49.07
-51.03
-50.54
-47.34
-41.53
-33.60
-24.36
-14.79
-5.76
2.08
8.42
13.27
16.76
19.10
20.40
20.78
20.37
19.45
18.36
17.50
17.06
17.02
17.11
17.02
16.47
15.42
13.96
12.27
10.45
8.43
6.03
3.04
-0.59
-4.72
-9.03
-13.21
-17.04
-20.58
-24.08
-27.88
-32.25
-37.33
-43.03
-49.04
-54.81
-59.62
-62.63
-63.07
-60.44
-54.75
-46.50
-36.57
-25.93
-15.33
-5.16
4.46
13.46
21.70
28.83
34.48
38.45
40.83
42.01
42.46
42.63
42.80
43.06
43.38
43.71
44.01
44.21
44.15
43.65
42.57
40.83
38.46
35.52
32.09
28.14
23.66
18.71
13.49
8.28
3.34
-1.22
-5.55
-9.96
-14.79
-20.32
-26.56
-33.26
-39.88
-45.63
-49.61
-50.98
-49.21
-44.21
-36.46
-26.85
-16.43
-6.16
3.29
11.58
18.62
24.40
28.87
31.91
33.46
33.59
32.58
30.91
29.13
27.67
26.76
26.37
26.31
26.32
26.18
25.78
25.05
23.99
22.59
20.87
18.87
16.61
14.11
11.34
8.23
4.74
0.89
-3.17
-7.20
-10.98
-14.38
-17.51
-20.66
-24.21
-28.47
-33.57
-39.34
-45.33
-50.84
-55.00
-56.92
-55.88
-51.49
-43.93
-33.88
-22.38
-10.58
0.61
10.62
19.19
26.17
31.51
35.15
37.16
37.82
37.62
37.10
36.72
36.73
37.14
37.82
38.60
39.33
39.87
40.11
39.97
39.37
38.30
36.74
34.71
32.23
29.38
26.30
23.23
20.37
17.85
15.59
13.35
10.81
7.70
3.95
-0.35
-4.96
-9.71
-14.55
-19.57
-24.91
-30.68
-36.71
-42.52
-47.29
-50.05
-49.97
-46.66
-40.26
-31.46
-21.27
-10.77
-0.81
8.08
15.64
21.83
26.60
29.88
31.63
31.84
30.64
28.43
25.69
23.01
20.81
19.27
18.27
17.49
16.68
15.72
14.75
13.93
13.38
12.94
12.29
11.07
9.14
6.62
3.86
1.29
-0.92
-2.81
-4.66
-6.74
-9.17
-11.84
-14.51
-16.95
-19.06
-20.88
-22.54
-24.15
-25.77
-27.46
-29.27
-31.25
-33.35
-35.27
-36.47
-36.20
-33.71
-28.54
-20.70
-10.79
0.22
11.23
21.34
29.98
36.96
42.28
46.01
48.16
48.78
48.05
46.38
44.30
42.39
41.00
40.19
39.67
39.10
38.14
36.74
35.02
33.25
31.61
30.12
28.61
26.75
24.27
21.05
17.21
13.08
9.05
5.37
2.13
-0.78
-3.61
-6.54
-9.69
-13.03
-16.48
-19.94
-23.34
-26.60
-29.74
-32.77
-35.79
-38.95
-42.44
-46.39
-50.68
-54.90
-58.27
-59.86
-58.83
-54.75
-47.85
-38.87
-28.93
-19.11
-10.17
-2.45
4.01
9.31
13.47
16.33
17.78
17.81
16.72
15.02
13.30
12.02
11.37
11.33
11.69
12.24
12.84
13.40
13.84
14.01
13.68
12.67
10.90
8.58
6.09
3.93
2.53
2.09
2.57
3.70
5.08
6.41
7.43
8.05
8.29
8.19
7.85
7.29
6.50
5.35
3.61
1.00
-2.66
-7.30
-12.49
-17.46
-21.22
-22.92
-22.04
-18.61
-13.22
-6.75
-0.11
5.99
11.20
15.39
18.56
20.68
21.69
21.54
20.40
18.58
16.51
14.61
13.16
12.26
11.87
11.91
12.26
12.85
13.51
14.04
14.14
13.52
11.97
9.51
6.40
3.11
0.16
-2.01
-3.20
-3.51
-3.20
-2.59
-1.83
-0.84
0.65
3.11
7.04
12.79
20.28
28.82
36.97
42.93
45.11
42.79
36.64
28.50
20.76
15.43
13.51
14.93
18.89
24.57
31.44
39.30
47.96
56.85
64.85
70.70
73.35
72.55
69.10
64.59
60.86
59.36
60.54
63.62
66.72
67.54
64.18
55.89
43.32
28.42
13.84
2.28
-4.12
-4.19
2.13
13.62
28.04
42.54
54.54
62.56
66.81
68.91
70.93
74.19
78.64
83.04
85.94
86.84
86.53
86.66
88.66
92.83
98.08
102.32
103.37
99.72
90.79
76.87
58.83
37.81
14.89
-9.02
-33.24
-57.29
-80.71
-102.94
-123.32
-141.13
-155.88
-167.55
-176.74
-184.73
-193.44
-205.02
-221.25
-242.62
-267.53
-292.49
-312.83
-324.33
-324.41
-312.79
-291.12
-262.34
-229.83
-196.99
-167.00
-142.33
-124.06
-111.34
-101.40
-90.59
-76.09
-57.18
-35.48
-13.98
4.72
19.48
30.80
39.83
47.28
52.91
55.83
55.42
51.99
46.85
41.56
37.03
33.14
28.96
23.69
17.43
11.44
7.64
7.61
11.71
18.68
26.13
31.43
32.77
29.74
23.21
14.84
6.22
-1.71
-9.13
-17.21
-27.85
-43.16
-64.62
-92.32
-124.39
-157.11
-185.75
-206.12
-215.85
-215.14
-206.12
-191.82
-175.06
-158.08
-142.73
-130.96
-124.89
-125.96
-134.14
-147.08
-160.14
-167.39
-162.76
-141.02
-98.27
-32.61
54.70
157.81
265.82
364.25
438.72
479.56
484.98
461.31
420.20
374.22
332.98
301.27
279.43
265.01
254.18
242.63
226.02
200.90
165.85
122.52
75.62
31.55
-3.98
-27.72
-39.89
-43.44
-42.55
-41.05
-41.27
-43.83
-48.05
-52.63
-56.31
-58.33
-58.36
-56.50
-53.02
-48.27
-42.62
-36.50
-30.40
-24.74
-19.83
-15.78
-12.50
-9.86
-7.86
-6.68
-6.72
-8.38
-11.84
-16.94
-23.16
-29.81
-36.31
-42.31
-47.76
-52.70
-56.97
-60.15
-61.50
-60.27
-56.01
-48.78
-39.21
-28.32
-17.26
-6.94
2.07
9.57
15.63
20.43
24.08
26.64
28.06
28.31
27.48
25.80
23.61
21.24
18.95
16.90
15.13
13.62
12.36
11.33
10.46
9.63
8.65
7.31
5.47
3.11
0.36
-2.63
-5.68
-8.73
-11.75
-14.73
-17.59
-20.25
-22.61
-24.63
-26.38
-28.02
-29.79
-31.91
-34.54
-37.70
-41.14
-44.34
-46.54
-46.87
-44.71
-39.83
-32.63
-23.92
-14.70
-5.78
2.37
9.67
16.20
22.05
27.14
31.25
34.15
35.69
35.94
35.15
33.69
31.93
30.18
28.66
27.46
26.55
25.82
25.08
24.18
23.00
21.51
19.76
17.78
15.62
13.28
10.72
7.93
4.96
1.91
-1.15
-4.16
-7.18
-10.30
-13.63
-17.26
-21.18
-25.39
-29.87
-34.59
-39.35
-43.73
-47.04
-48.42
-47.14
-42.88
-35.93
-27.17
-17.77
-8.80
-0.96
5.54
10.86
15.27
18.90
21.70
23.50
24.20
23.92
23.02
21.99
21.25
20.99
21.11
21.30
21.20
20.58
19.40
17.80
15.98
14.07
12.05
9.77
7.12
4.05
0.70
-2.67
-5.81
-8.58
-11.03
-13.37
-15.86
-18.71
-22.01
-25.76
-29.93
-34.47
-39.26
-44.05
-48.32
-51.35
-52.29
-50.51
-45.80
-38.48
-29.37
-19.45
-9.70
-0.73
7.15
13.92
19.64
24.36
28.01
30.54
31.93
32.33
32.00
31.27
30.45
29.74
29.26
29.02
28.91
28.81
28.51
27.83
26.66
24.97
22.79
20.25
17.42
14.39
11.22
7.95
4.64
1.33
-1.91
-5.06
-8.10
-11.05
-13.95
-16.90
-20.03
-23.52
-27.52
-32.07
-37.00
-41.83
-45.79
-47.97
-47.55
-44.08
-37.65
-28.91
-18.88
-8.64
0.96
9.42
16.53
22.31
26.85
30.21
32.43
33.62
33.94
33.61
32.87
31.94
30.92
29.87
28.80
27.71
26.63
25.62
24.72
23.87
22.97
21.85
20.29
18.22
15.61
12.56
9.20
5.65
2.02
-1.63
-5.21
-8.66
-11.87
-14.79
-17.42
-19.92
-22.57
-25.71
-29.61
-34.30
-39.46
-44.39
-48.22
-50.09
-49.42
-46.06
-40.35
-33.03
-24.95
-16.91
-9.45
-2.88
2.73
7.37
11.02
13.66
15.32
16.24
16.76
17.38
18.49
20.32
22.77
25.50
28.03
29.87
30.68
30.36
28.96
26.71
23.93
20.92
17.95
15.14
12.54
10.21
8.16
6.48
5.28
4.60
4.41
4.56
4.77
4.72
4.06
2.47
-0.25
-4.17
-9.22
-15.11
-21.37
-27.29
-32.00
-34.62
-34.41
-31.00
-24.55
-15.75
-5.71
4.37
13.45
20.93
26.59
30.52
32.92
33.92
33.63
32.18
29.78
26.87
23.94
21.45
19.70
18.76
18.48
18.65
18.97
19.23
19.21
18.79
17.90
16.48
14.55
12.10
9.19
5.93
2.46
-0.99
-4.22
-7.13
-9.70
-12.07
-14.39
-16.71
-19.05
-21.33
-23.51
-25.70
-28.16
-31.10
-34.59
-38.29
-41.50
-43.29
-42.82
-39.64
-33.83
-26.04
-17.20
-8.30
-0.12
6.88
12.55
16.87
19.91
21.69
22.27
21.78
20.46
18.66
16.81
15.29
14.38
14.14
14.45
15.10
15.88
16.59
17.12
17.40
17.33
16.85
15.90
14.50
12.80
10.95
9.11
7.38
5.71
4.04
2.31
0.43
-1.65
-4.00
-6.72
-9.88
-13.47
-17.45
-21.78
-26.43
-31.35
-36.32
-40.86
-44.24
-45.68
-44.60
-40.93
-35.15
-28.09
-20.67
-13.56
-7.07
-1.16
4.37
9.68
14.80
19.68
24.19
28.26
31.93
35.27
38.31
40.93
42.86
43.71
43.10
40.84
37.01
32.00
26.40
20.74
15.43
10.54
5.97
1.58
-2.67
-6.65
-10.10
-12.81
-14.71
-15.93
-16.80
-17.68
-18.92
-20.81
-23.55
-27.25
-31.82
-36.92
-41.92
-45.93
-48.04
-47.54
-44.12
-38.05
-30.01
-20.93
-11.72
-3.04
4.72
11.29
16.47
20.06
21.91
22.04
20.74
18.50
15.84
13.23
10.93
9.02
7.57
6.56
5.97
5.69
5.57
5.42
5.13
4.64
3.99
3.15
2.06
0.60
-1.35
-3.80
-6.67
-9.83
-13.18
-16.70
-20.44
-24.45
-28.75
-33.28
-37.99
-42.83
-47.75
-52.64
-57.21
-60.89
-63.02
-62.91
-60.15
-54.74
-47.13
-38.06
-28.38
-18.83
-9.91
-1.98
4.80
10.28
14.41
17.15
18.64
19.11
18.88
18.31
17.69
17.26
17.12
17.29
17.68
18.20
18.78
19.39
20.07
20.82
21.60
22.31
22.77
22.87
22.64
22.29
22.15
22.56
23.80
25.90
28.68
31.76
34.67
36.90
38.05
37.86
36.23
33.30
29.38
25.00
20.79
17.49
15.72
15.91
18.16
22.18
27.43
33.23
38.95
44.05
48.19
51.13
52.77
53.08
52.18
50.30
47.74
44.86
41.98
39.32
36.93
34.74
32.54
30.16
27.52
24.69
21.87
19.28
17.02
14.99
12.98
10.71
8.06
5.05
1.89
-1.14
-3.73
-5.68
-6.89
-7.40
-7.36
-6.96
-6.46
-6.05
-5.94
-6.34
-7.42
-9.31
-11.92
-14.92
-17.65
-19.28
-19.08
-16.69
-12.25
-6.46
-0.31
5.10
8.82
10.16
8.70
4.29
-2.91
-12.40
-23.25
-34.24
-44.00
-51.22
-54.92
-54.64
-50.46
-43.06
-33.52
-23.12
-13.12
-4.50
2.07
6.27
8.03
7.41
4.59
-0.09
-6.09
-12.71
-19.27
-25.31
-30.70
-35.67
-40.55
-45.62
-50.91
-56.28
-61.39
-65.86
-69.27
-71.10
-70.77
-67.78
-61.79
-52.77
-41.04
-27.20
-12.00
3.64
18.58
31.58
41.39
46.98
47.96
44.74
38.49
30.90
23.74
18.30
15.22
14.24
14.43
14.51
13.29
10.11
4.98
-1.51
-8.48
-15.13
-21.07
-26.24
-30.77
-34.78
-38.21
-40.95
-42.93
-44.30
-45.36
-46.38
-47.55
-48.87
-50.27
-51.78
-53.53
-55.56
-57.66
-59.10
-58.74
-55.33
-47.93
-36.31
-21.06
-3.46
14.92
32.60
48.46
61.85
72.54
80.56
86.06
89.23
90.26
89.33
86.70
82.66
77.61
71.91
65.87
59.64
53.24
46.62
39.76
32.78
25.86
19.26
13.18
7.68
2.71
-1.92
-6.49
-11.28
-16.54
-22.37
-28.62
-34.96
-40.94
-46.21
-50.69
-54.56
-58.17
-61.69
-64.98
-67.43
-68.14
-66.23
-61.12
-52.81
-41.84
-29.17
-15.94
-3.21
8.25
17.95
25.66
31.30
34.86
36.36
35.89
33.65
29.96
25.24
19.90
14.29
8.66
3.19
-1.94
-6.49
-10.17
-12.73
-14.04
-14.18
-13.56
-12.82
-12.72
-13.92
-16.78
-21.19
-26.58
-32.10
-36.88
-40.34
-42.26
-42.92
-42.90
-42.94
-43.66
-45.46
-48.28
-51.61
-54.64
-56.35
-55.90
-52.76
-46.85
-38.51
-28.41
-17.37
-6.22
4.26
13.57
21.40
27.75
32.76
36.59
39.38
41.26
42.48
43.54
45.11
47.88
52.24
58.09
64.92
71.95
78.45
83.91
88.04
90.67
91.59
90.54
87.37
82.14
75.22
67.21
58.76
50.41
42.50
35.10
28.15
21.53
15.03
8.39
1.30
-6.49
-15.01
-23.86
-32.13
-38.59
-42.07
-41.91
-38.31
-32.17
-24.85
-17.61
-11.27
-6.20
-2.48
-0.25
0.15
-1.63
-5.69
-11.58
-18.33
-24.71
-29.67
-32.69
-33.87
-33.76
-33.00
-32.01
-30.88
-29.48
-27.61
-25.28
-22.74
-20.41
-18.68
-17.76
-17.55
-17.66
-17.56
-16.84
-15.37
-13.28
-10.96
-8.89
-7.45
-6.96
-7.57
-9.31
-12.00
-15.13
-17.96
-19.62
-19.44
-17.23
-13.27
-8.15
-2.34
4.10
11.52
20.36
30.78
42.30
53.87
64.25
72.47
78.13
81.37
82.64
82.45
81.26
79.50
77.58
75.78
74.15
72.40
69.95
66.21
60.99
54.64
47.96
41.94
37.21
33.84
31.31
28.79
25.53
21.18
15.87
10.04
4.22
-1.29
-6.50
-11.69
-17.21
-23.32
-29.99
-36.99
-43.89
-50.15
-55.13
-58.12
-58.48
-55.78
-49.97
-41.48
-31.16
-20.07
-9.19
0.74
9.36
16.53
22.27
26.61
29.54
31.17
31.69
31.52
31.15
31.04
31.47
32.49
33.92
35.48
36.90
37.95
38.37
37.89
36.23
33.39
29.71
25.95
23.13
22.06
23.10
25.94
29.75
33.54
36.50
38.23
38.74
38.28
37.22
35.88
34.52
33.26
32.16
31.15
30.17
29.16
28.07
26.88
25.49
23.69
21.18
17.62
12.80
6.69
-0.44
-8.13
-15.73
-22.53
-27.89
-31.34
-32.72
-32.23
-30.37
-27.82
-25.24
-23.11
-21.65
-20.90
-20.80
-21.31
-22.41
-24.19
-26.63
-29.63
-32.95
-36.30
-39.42
-42.08
-44.20
-45.74
-46.67
-46.92
-46.39
-45.09
-43.15
-40.85
-38.51
-36.39
-34.58
-32.91
-31.05
-28.63
-25.41
-21.36
-16.75
-12.09
-8.00
-5.06
-3.58
-3.49
-4.35
-5.43
-6.01
-5.63
-4.30
-2.52
-1.05
-0.58
-1.43
-3.36
-5.73
-7.67
-8.52
-8.04
-6.54
-4.83
-4.00
-5.09
-8.75
-14.92
-22.79
-30.93
-37.78
-42.23
-44.00
-43.71
-42.64
-42.17
-43.31
-46.45
-51.36
-57.41
-63.81
-69.87
-75.09
-79.38
-83.00
-86.60
-90.91
-96.28
-102.23
-107.31
-109.43
-106.55
-97.63
-83.11
-64.92
-45.88
-28.83
-15.96
-8.46
-6.62
-10.11
-18.15
-29.37
-41.66
-52.26
-58.25
-57.54
-49.88
-37.21
-23.07
-11.14
-3.63
-0.24
1.50
4.75
11.30
20.23
28.05
30.33
24.11
9.58
-9.78
-29.03
-44.16
-53.98
-60.21
-65.89
-73.17
-81.90
-89.95
-94.78
-95.23
-92.01
-86.94
-81.31
-74.82
-65.82
-52.51
-34.40
-12.97
8.89
28.06
42.40
51.20
55.00
55.07
52.85
49.73
46.85
45.03
44.63
45.52
47.28
49.51
52.07
55.11
58.99
64.04
70.28
77.43
85.01
92.58
99.92
107.13
114.51
122.33
130.57
138.73
145.96
151.28
153.94
153.63
150.64
145.66
139.51
132.93
126.30
119.74
113.10
106.13
98.57
90.22
80.95
70.81
59.99
48.84
37.83
27.41
17.94
9.55
1.91
-5.72
-14.42
-25.18
-38.53
-54.02
-70.25
-85.22
-96.97
-104.29
-107.08
-106.22
-103.07
-98.84
-94.16
-89.09
-83.26
-76.24
-67.69
-57.51
-45.79
-32.84
-19.27
-6.02
5.77
14.93
20.60
22.49
21.00
17.06
11.95
6.87
2.76
0.04
-1.32
-1.68
-1.54
-1.37
-1.47
-1.91
-2.59
-3.37
-4.14
-4.89
-5.72
-6.77
-8.11
-9.74
-11.62
-13.67
-15.90
-18.43
-21.49
-25.35
-30.20
-36.01
-42.42
-48.67
-53.65
-56.15
-55.14
-50.12
-41.33
-29.70
-16.58
-3.43
8.63
18.95
27.32
33.82
38.59
41.66
43.05
42.82
41.23
38.79
36.17
33.94
32.47
31.74
31.44
31.17
30.62
29.71
28.50
27.14
25.66
23.93
21.72
18.75
14.88
10.16
4.84
-0.69
-5.99
-10.82
-15.15
-19.27
-23.63
-28.77
-35.03
-42.44
-50.55
-58.47
-64.94
-68.58
-68.25
-63.34
-54.05
-41.31
-26.60
-11.48
2.75
15.26
25.69
33.99
40.20
44.42
46.78
47.50
46.96
45.63
43.92
42.14
40.42
38.72
36.96
35.08
33.14
31.24
29.61
28.43
27.83
27.72
27.83
27.68
26.73
24.52
20.80
15.62
9.24
2.09
-5.45
-13.06
-20.54
-27.78
-34.68
-41.14
-47.00
-51.98
-55.63
-57.35
-56.43
-52.20
-44.26
-32.72
-18.30
-2.31
13.60
27.80
39.04
46.70
50.81
51.86
50.59
47.77
44.12
40.29
36.84
34.24
32.81
32.61
33.40
34.75
36.07
36.84
36.65
35.31
32.84
29.39
25.23
20.61
15.77
10.91
6.18
1.70
-2.40
-5.99
-9.00
-11.52
-13.80
-16.36
-19.80
-24.64
-31.10
-39.02
-47.78
-56.43
-63.79
-68.63
-69.89
-66.87
-59.47
-48.27
-34.46
-19.60
-5.19
7.61
18.14
26.19
31.78
35.03
36.08
35.17
32.74
29.46
26.12
23.43
21.77
21.19
21.38
21.88
22.32
22.48
22.29
21.81
20.99
19.71
17.72
14.82
10.98
6.42
1.60
-3.05
-7.16
-10.65
-13.71
-16.72
-20.18
-24.48
-29.79
-35.90
-42.18
-47.59
-50.91
-51.04
-47.32
-39.75
-29.06
-16.47
-3.40
8.90
19.59
28.27
34.84
39.37
41.91
42.54
41.44
38.93
35.56
32.00
28.85
26.54
25.15
24.45
23.99
23.36
22.24
20.59
18.51
16.20
13.77
11.16
8.18
4.64
0.50
-4.07
-8.69
-12.98
-16.74
-20.02
-23.10
-26.38
-30.25
-34.94
-40.48
-46.65
-52.96
-58.59
-62.49
-63.50
-60.70
-53.64
-42.68
-28.87
-13.81
0.88
13.91
24.65
33.09
39.54
44.34
47.64
49.31
49.23
47.46
44.46
41.03
38.07
36.30
36.00
36.98
38.67
40.46
41.84
42.56
42.57
41.89
40.52
38.34
35.26
31.21
26.36
20.99
15.53
10.38
5.86
2.10
-0.98
-3.68
-6.46
-9.84
-14.34
-20.22
-27.48
-35.64
-43.77
-50.63
-54.87
-55.38
-51.64
-43.92
-33.16
-20.80
-8.25
3.44
13.73
22.49
29.74
35.39
39.15
40.69
39.86
36.86
32.33
27.07
21.85
17.17
13.20
9.85
6.94
4.31
1.89
-0.26
-2.09
-3.53
-4.59
-5.34
-5.93
-6.58
-7.52
-8.94
-10.91
-13.42
-16.27
-19.30
-22.41
-25.59
-28.92
-32.48
-36.33
-40.48
-44.87
-49.36
-53.60
-56.97
-58.60
-57.55
-53.13
-45.25
-34.54
-22.22
-9.77
1.56
10.96
18.19
23.38
26.76
28.57
28.95
28.07
26.21
23.83
21.46
19.60
18.52
18.22
18.44
18.79
18.91
18.58
17.68
16.28
14.48
12.43
10.19
7.80
5.20
2.34
-0.78
-4.04
-7.27
-10.28
-13.00
-15.47
-17.86
-20.35
-23.02
-25.86
-28.80
-31.88
-35.14
-38.62
-42.11
-45.08
-46.67
-45.93
-42.14
-35.19
-25.63
-14.59
-3.39
6.81
15.32
21.92
26.66
29.67
30.94
30.48
28.46
25.35
21.93
19.06
17.35
16.98
17.66
18.81
19.81
20.26
20.04
19.26
18.11
16.66
14.92
12.77
10.15
7.04
3.58
-0.03
-3.59
-6.96
-10.09
-13.00
-15.75
-18.41
-21.12
-24.09
-27.47
-31.36
-35.57
-39.57
-42.54
-43.49
-41.62
-36.54
-28.50
-18.35
-7.30
3.42
12.82
20.36
25.91
29.60
31.66
32.29
31.65
29.92
27.41
24.53
21.86
19.95
19.20
19.69
21.12
22.90
24.33
24.92
24.47
23.11
21.10
18.61
15.69
12.28
8.39
4.16
-0.11
-4.09
-7.58
-10.55
-13.13
-15.51
-17.89
-20.45
-23.38
-26.86
-31.07
-36.00
-41.44
-46.92
-51.72
-54.93
-55.65
-53.16
-47.19
-38.06
-26.69
-14.36
-2.42
8.13
16.79
23.55
28.62
32.20
34.38
35.12
34.48
32.77
30.51
28.32
26.68
25.76
25.47
25.50
25.54
25.38
24.96
24.23
23.11
21.41
18.95
15.65
11.70
7.50
3.52
0.09
-2.74
-5.19
-7.57
-10.15
-13.00
-16.02
-19.06
-22.02
-24.96
-28.05
-31.50
-35.43
-39.80
-44.37
-48.60
-51.71
-52.82
-51.16
-46.33
-38.48
-28.34
-16.96
-5.53
4.98
13.86
20.75
25.53
28.25
29.13
28.51
26.85
24.67
22.44
20.56
19.29
18.73
18.79
19.29
19.95
20.52
20.79
20.68
20.14
19.18
17.82
16.15
14.37
12.76
11.59
10.97
10.76
10.64
10.16
9.00
7.05
4.34
1.06
-2.62
-6.60
-10.91
-15.60
-20.76
-26.45
-32.59
-38.88
-44.76
-49.37
-51.70
-50.88
-46.44
-38.60
-28.22
-16.62
-5.20
4.91
13.05
18.99
22.82
24.68
24.75
23.21
20.37
16.71
12.85
9.40
6.88
5.51
5.29
5.94
7.10
8.39
9.48
10.18
10.39
10.06
9.18
7.79
5.96
3.79
1.40
-1.13
-3.77
-6.45
-9.10
-11.58
-13.77
-15.66
-17.39
-19.26
-21.54
-24.45
-28.06
-32.25
-36.72
-41.01
-44.38
-45.90
-44.69
-40.23
-32.59
-22.60
-11.57
-0.87
8.47
16.11
22.18
27.07
30.94
33.73
35.17
35.12
33.77
31.67
29.47
27.76
26.74
26.32
26.19
26.06
25.80
25.38
24.80
24.01
22.87
21.21
18.99
16.30
13.34
10.33
7.40
4.51
1.58
-1.51
-4.79
-8.21
-11.65
-15.00
-18.21
-21.37
-24.65
-28.25
-32.43
-37.33
-42.80
-48.34
-53.03
-55.71
-55.26
-51.07
-43.22
-32.50
-20.25
-7.85
3.56
13.29
21.10
27.03
31.20
33.72
34.65
34.10
32.35
29.81
27.04
24.53
22.63
21.38
20.69
20.34
20.14
19.99
19.79
19.44
18.75
17.53
15.65
13.17
10.27
7.24
4.25
1.41
-1.36
-4.18
-7.15
-10.32
-13.65
-17.02
-20.30
-23.37
-26.21
-28.96
-31.93
-35.48
-39.89
-45.08
-50.53
-55.25
-58.05
-57.84
-53.98
-46.53
-36.22
-24.24
-11.94
-0.44
9.48
17.47
23.50
27.65
30.09
31.02
30.69
29.48
27.85
26.21
24.87
23.95
23.36
22.95
22.52
22.00
21.35
20.56
19.61
18.39
16.81
14.85
12.53
10.02
7.47
5.02
2.72
0.49
-1.82
-4.34
-7.16
-10.20
-13.30
-16.30
-19.09
-21.74
-24.44
-27.48
-31.11
-35.45
-40.34
-45.33
-49.63
-52.28
-52.32
-49.13
-42.60
-33.28
-22.25
-10.76
-0.00
9.25
16.62
22.05
25.61
27.35
27.39
25.93
23.40
20.42
17.69
15.77
14.97
15.24
16.22
17.39
18.23
18.44
17.92
16.82
15.40
13.88
12.38
10.84
9.08
6.96
4.44
1.61
-1.36
-4.32
-7.22
-10.12
-13.12
-16.31
-19.66
-23.18
-26.91
-30.95
-35.45
-40.37
-45.28
-49.34
-51.43
-50.51
-46.02
-38.15
-27.75
-16.09
-4.44
6.26
15.44
22.94
28.73
32.87
35.40
36.47
36.35
35.40
34.05
32.67
31.49
30.60
29.95
29.44
28.93
28.28
27.38
26.15
24.52
22.49
20.10
17.43
14.55
11.56
8.52
5.46
2.36
-0.85
-4.21
-7.77
-11.50
-15.29
-19.08
-22.83
-26.64
-30.73
-35.37
-40.69
-46.58
-52.54
-57.72
-61.02
-61.41
-58.20
-51.30
-41.30
-29.32
-16.72
-4.72
5.85
14.69
21.84
27.48
31.77
34.69
36.21
36.39
35.44
33.76
31.77
29.79
27.94
26.20
24.45
22.64
20.76
18.90
17.13
15.53
14.15
13.02
12.15
11.59
11.36
11.49
11.98
12.79
13.81
14.90
15.89
16.59
16.79
16.31
14.95
12.51
8.77
3.57
-3.10
-11.00
-19.48
-27.54
-33.94
-37.39
-37.01
-32.59
-24.69
-14.51
-3.52
6.96
16.07
23.41
28.98
32.92
35.35
36.38
36.08
34.58
32.13
29.09
25.88
22.88
20.37
18.44
17.01
15.83
14.63
13.14
11.21
8.75
5.81
2.43
-1.23
-4.99
-8.62
-11.91
-14.73
-17.09
-19.17
-21.17
-23.24
-25.41
-27.52
-29.45
-31.09
-32.53
-34.04
-35.95
-38.59
-42.17
-46.68
-51.76
-56.72
-60.53
-62.00
-60.08
-54.21
-44.57
-32.05
-18.02
-3.94
9.07
20.39
29.86
37.59
43.71
48.26
51.21
52.56
52.50
51.44
49.98
48.70
47.96
47.82
48.11
48.50
48.72
48.63
48.18
47.33
45.97
43.94
41.08
37.42
33.18
28.75
24.46
20.49
16.77
13.04
8.98
4.36
-0.92
-6.73
-12.79
-18.77
-24.37
-29.44
-34.12
-38.77
-43.81
-49.58
-56.03
-62.62
-68.41
-72.26
-73.09
-70.26
-63.65
-53.80
-41.75
-28.84
-16.35
-5.26
3.87
10.81
15.52
18.01
18.30
16.54
13.15
8.82
4.41
0.68
-1.96
-3.53
-4.33
-4.81
-5.30
-5.95
-6.85
-8.05
-9.58
-11.44
-13.60
-15.89
-18.04
-19.74
-20.73
-20.96
-20.59
-19.88
-19.14
-18.63
-18.39
-18.24
-17.89
-17.19
-16.33
-15.76
-15.96
-17.40
-20.36
-24.69
-29.62
-33.87
-35.94
-34.50
-28.78
-18.34
-3.61
14.35
34.47
56.32
80.23
106.94
136.80
169.10
202.35
233.64
259.32
276.32
283.27
280.80
270.85
255.59
236.66
215.68
193.45
169.94
145.07
119.12
92.63
66.22
40.46
11.15
-21.22
-52.56
-78.32
-96.66
-109.52
-120.80
-133.84
-149.66
-166.84
-182.97
-195.69
-204.19
-208.84
-210.55
-210.04
-207.57
-203.09
-196.66
-188.23
-176.20
-161.10
-144.11
-126.18
-107.62
-88.18
-67.60
-46.15
-24.58
-4.50
11.60
21.74
25.28
23.28
18.10
12.43
8.36
6.88
7.94
10.39
13.07
15.14
16.08
15.53
13.11
8.60
2.13
-5.39
-12.71
-18.38
-21.47
-22.07
-21.13
-20.16
-20.38
-22.41
-25.75
-29.19
-31.35
-31.45
-29.89
-28.04
-27.65
-29.78
-34.54
-40.66
-45.93
-47.75
-43.82
-32.66
-13.50
13.61
48.41
86.58
121.42
145.74
155.39
151.36
138.16
120.87
102.82
85.98
70.84
57.57
46.41
37.64
31.37
26.68
24.30
21.08
14.65
3.89
-10.51
-26.37
-40.75
-50.80
-55.29
-54.81
-51.46
-46.69
-40.75
-32.18
-18.29
1.08
25.25
51.06
73.36
86.49
87.22
75.88
56.46
35.11
17.67
7.93
6.21
10.03
15.70
20.46
23.26
24.68
26.07
28.43
32.07
36.24
39.74
41.58
41.61
40.23
37.92
34.73
30.02
22.98
12.95
0.06
-14.57
-29.04
-41.37
-50.29
-55.67
-58.47
-60.10
-61.84
-64.22
-66.96
-69.22
-70.17
-69.44
-67.21
-64.14
-60.96
-58.29
-56.45
-55.47
-55.15
-55.11
-54.91
-54.16
-52.68
-50.50
-47.89
-45.19
-42.65
-40.28
-37.71
-34.27
-29.06
-21.32
-10.64
2.80
18.11
33.97
48.93
61.86
72.13
79.59
84.39
86.70
86.65
84.32
79.99
74.25
67.96
62.09
57.42
54.26
52.32
50.84
48.88
45.62
40.73
34.34
26.94
19.14
11.36
3.77
-3.57
-10.58
-16.91
-22.03
-25.38
-26.64
-25.89
-23.65
-20.79
-18.34
-17.25
-18.23
-21.46
-26.56
-32.53
-37.96
-41.40
-41.72
-38.41
-31.68
-22.32
-11.45
-0.24
10.23
19.15
25.96
30.41
32.58
32.91
32.08
30.89
30.02
29.89
30.57
31.89
33.53
35.22
36.80
38.24
39.58
40.87
42.21
43.75
45.61
47.84
50.34
52.81
54.86
56.13
56.46
55.90
54.62
52.74
50.17
46.68
42.01
36.13
29.40
22.59
16.74
12.81
11.45
12.71
16.07
20.56
25.02
28.38
29.87
29.02
25.67
19.87
11.84
2.00
-8.99
-20.27
-30.86
-39.95
-47.12
-52.46
-56.51
-59.98
-63.50
-67.25
-71.04
-74.39
-76.91
-78.46
-79.32
-80.05
-81.24
-83.22
-85.92
-88.88
-91.47
-93.14
-93.64
-93.05
-91.76
-90.24
-88.95
-88.13
-87.70
-87.27
-86.18
-83.64
-78.90
-71.49
-61.36
-48.97
-35.27
-21.52
-9.03
1.11
8.27
12.25
13.31
11.89
8.46
3.40
-2.97
-10.42
-18.61
-27.19
-35.71
-43.72
-50.85
-56.81
-61.52
-65.09
-67.74
-69.54
-70.21
-68.85
-63.95
-53.49
-35.28
-7.55
30.44
77.67
131.08
185.77
235.96
276.35
303.38
316.06
315.95
306.56
292.54
278.74
269.33
267.11
272.76
284.69
299.43
312.67
320.61
320.86
312.76
296.84
274.20
245.96
213.27
177.53
140.36
103.37
67.67
33.65
1.14
-30.14
-60.05
-88.08
-113.57
-136.05
-155.40
-171.56
-184.09
-191.97
-193.79
-188.31
-175.18
-155.34
-130.93
-104.80
-79.89
-58.66
-42.82
-33.05
-28.99
-29.30
-31.96
-34.87
-36.31
-35.39
-32.03
-26.71
-20.09
-12.68
-4.86
3.11
10.90
18.06
24.15
28.89
32.29
34.59
36.11
36.92
36.60
34.08
27.85
16.29
-1.53
-25.53
-54.45
-86.35
-119.31
-152.18
-184.92
-218.57
-254.91
-295.84
-342.76
-395.82
-453.44
-512.12
-566.70
-611.31
-640.60
-650.95
-641.38
-613.70
-572.00
-521.48
-467.17
-412.75
-360.04
-309.23
-259.66
-210.65
-162.10
-114.42
-68.02
-22.84
21.97
67.66
115.16
164.48
214.36
262.55
306.40
343.59
372.62
393.10
405.61
411.50
412.60
410.90
408.24
405.96
404.43
402.58
397.87
386.78
366.16
334.72
294.02
248.40
203.59
164.69
134.44
112.57
96.51
82.79
68.62
52.61
34.67
15.42
-4.52
-24.84
-45.32
-65.66
-85.33
-103.74
-120.36
-134.72
-146.36
-154.79
-159.49
-160.03
-156.17
-148.03
-136.02
-120.90
-103.96
-86.84
-71.34
-59.03
-50.67
-45.93
-43.37
-41.06
-37.42
-32.08
-25.94
-20.61
-17.60
-17.58
-20.14
-24.00
-27.52
-29.21
-28.26
-24.19
-16.62
-5.54
8.42
23.68
37.97
48.86
54.41
52.81
43.24
25.93
1.74
-27.98
-61.44
-95.84
-127.50
-152.73
-170.29
-180.24
-183.31
-180.46
-172.78
-161.40
-147.15
-130.45
-111.80
-94.38
-81.07
-73.03
-69.41
-68.02
-66.65
-63.38
-57.14
-48.65
-43.43
-46.77
-60.46
-81.65
-103.99
-120.72
-126.90
-121.20
-88.58
-28.68
43.51
106.00
144.27
157.70
154.15
142.98
130.51
119.14
105.89
88.49
68.70
48.66
34.88
31.33
38.30
52.87
70.37
83.98
89.27
86.76
81.58
78.53
80.77
89.33
103.14
119.77
136.09
149.67
160.44
169.40
177.72
185.80
193.58
201.06
208.77
217.31
223.78
228.21
231.56
234.98
238.98
243.22
246.44
246.94
242.89
233.23
218.93
201.94
184.61
168.49
153.93
139.72
123.69
103.40
76.70
42.51
0.18
-50.22
-107.08
-166.27
-220.85
-261.99
-281.71
-275.99
-246.42
-200.34
-148.05
-99.05
-59.08
-29.50
-8.77
5.13
13.02
14.70
10.05
0.51
-10.57
-19.00
-21.50
-16.84
-6.02
8.57
24.65
41.06
57.87
75.93
95.97
117.95
140.86
162.91
182.08
196.79
206.31
210.94
211.56
208.99
203.14
192.65
175.41
149.62
115.16
74.04
29.93
-13.45
-53.86
-91.44
-128.54
-168.70
-215.30
-270.07
-332.03
-396.81
-457.05
-503.81
-529.18
-528.77
-503.22
-457.64
-399.28
-334.65
-267.60
-199.44
-130.71
-63.25
-1.10
50.53
87.25
107.56
113.50
109.66
101.34
92.66
85.68
80.48
76.14
71.69
66.69
61.24
55.58
49.75
43.55
36.66
28.91
20.48
11.80
3.34
-4.75
-12.68
-21.07
-30.69
-42.19
-55.85
-71.40
-88.09
-104.79
-120.21
-133.19
-142.88
-148.96
-151.69
-151.82
-150.24
-147.63
-144.19
-139.61
-133.47
-125.71
-117.01
-108.73
-102.59
-99.94
-101.41
-106.87
-115.73
-127.46
-141.68
-158.08
-175.91
-193.76
-209.57
-221.33
-227.77
-228.83
-225.48
-218.85
-209.38
-196.41
-178.36
-153.69
-121.65
-82.70
-38.12
10.46
61.55
113.64
164.51
210.54
246.67
267.49
268.95
250.07
213.67
165.72
113.60
64.02
21.74
-10.80
-32.68
-43.56
-43.08
-30.97
-7.65
25.48
66.18
112.04
161.04
211.58
262.00
309.95
352.39
386.11
408.73
419.44
419.29
410.53
395.63
376.46
353.94
328.25
299.29
266.98
231.38
192.72
151.29
107.75
63.41
20.45
-18.21
-49.40
-70.55
-80.50
-79.95
-71.41
-58.61
-45.45
-35.10
-29.21
-27.83
-29.63
-32.55
-34.54
-34.15
-30.86
-25.18
-18.46
-12.66
-9.96
-12.39
-21.32
-37.10
-58.72
-83.89
-109.40
-131.85
-148.44
-157.60
-159.26
-154.71
-146.08
-135.68
-125.50
-116.82
-110.20
-105.59
-102.63
-100.88
-99.96
-99.72
-100.15
-101.35
-103.37
-106.08
-109.07
-111.74
-113.39
-113.57
-112.32
-110.33
-108.63
-108.12
-108.80
-109.43
-107.50
-99.96
-84.20
-59.09
-25.42
14.31
56.56
97.66
134.46
164.46
185.87
197.55
199.35
192.35
179.06
162.97
147.73
136.23
129.94
128.77
131.58
136.77
142.83
148.52
152.85
154.98
154.31
150.55
143.92
134.94
124.27
112.51
100.08
87.37
74.75
62.44
50.36
38.15
25.44
12.44
0.46
-8.14
-10.52
-4.31
11.84
38.14
73.85
117.20
164.80
210.96
247.83
266.86
261.55
229.99
176.12
108.33
36.61
-30.81
-89.48
-138.72
-180.20
-216.40
-249.80
-282.61
-316.40
-351.04
-383.60
-408.14
-417.30
-405.05
-369.56
-314.29
-246.59
-174.63
-104.42
-38.71
21.88
76.39
121.89
153.71
167.68
162.67
141.62
110.40
75.12
39.62
4.81
-30.28
-65.98
-100.23
-128.41
-144.90
-145.21
-127.58
-93.09
-44.98
12.33
73.58
132.80
183.29
218.36
232.63
223.58
192.54
144.79
88.40
32.13
-16.85
-54.80
-81.90
-101.17
-116.23
-128.97
-138.50
-141.72
-135.41
-118.52
-93.37
-64.89
-38.59
-18.34
-5.25
1.98
5.69
7.93
9.83
11.91
14.78
19.56
27.75
40.49
57.81
78.30
99.34
117.69
130.27
134.80
130.12
116.34
94.82
67.92
38.69
10.34
-14.43
-33.79
-46.91
-53.76
-54.64
-49.91
-39.92
-25.14
-6.43
14.83
36.87
57.83
76.06
90.37
100.11
105.09
105.38
101.27
93.35
82.66
70.74
59.56
51.13
47.06
48.07
53.81
63.03
74.00
85.04
94.95
103.17
109.63
114.33
116.85
116.08
110.31
97.73
77.25
49.30
16.02
-19.09
-52.16
-80.16
-101.66
-116.96
-127.62
-135.52
-141.96
-147.25
-150.73
-151.27
-147.88
-140.23
-128.84
-114.87
-99.78
-84.93
-71.33
-59.49
-49.46
-40.86
-32.90
-24.54
-14.67
-2.48
12.15
28.51
45.11
60.02
71.33
77.67
78.45
74.05
65.63
54.92
43.69
33.43
24.90
18.09
12.36
6.78
0.56
-6.73
-15.06
-24.14
-33.66
-43.65
-54.52
-66.90
-81.21
-97.30
-114.14
-130.13
-143.56
-153.32
-159.41
-162.98
-165.87
-169.85
-175.80
-183.26
-190.40
-194.09
-190.46
-175.81
-147.67
-105.93
-53.40
4.33
60.04
106.57
138.66
154.33
155.04
144.77
128.35
109.92
92.06
76.01
62.39
51.90
45.50
43.93
47.17
54.06
62.61
70.73
77.03
81.16
83.74
85.75
87.93
90.47
92.70
93.19
89.99
81.04
64.88
41.26
11.60
-21.13
-52.94
-79.83
-98.71
-108.10
-108.50
-102.36
-93.62
-86.79
-85.94
-93.52
-109.63
-131.96
-156.53
-178.87
-195.40
-204.14
-204.82
-198.30
-186.10
-169.96
-151.94
-134.30
-119.17
-107.68
-99.14
-90.78
-78.52
-58.54
-28.95
9.13
51.74
93.59
129.99
158.70
180.72
199.82
220.74
247.13
279.72
315.93
350.74
378.54
394.97
397.94
387.62
365.70
334.65
297.39
257.24
217.88
182.69
153.73
130.85
111.69
92.59
70.34
43.60
13.37
-17.55
-45.67
-67.91
-82.14
-87.28
-83.29
-71.34
-54.03
-35.32
-19.91
-12.05
-14.41
-27.33
-49.00
-76.16
-105.19
-132.87
-156.87
-175.90
-189.39
-197.26
-199.40
-195.33
-184.18
-165.05
-137.90
-104.15
-66.95
-30.43
1.52
26.43
43.68
53.95
58.14
56.59
49.03
35.30
16.42
-4.65
-23.11
-33.37
-30.81
-13.36
17.89
59.27
106.17
154.59
201.74
245.42
282.63
308.71
317.81
304.85
267.86
209.52
136.81
59.05
-14.86
-78.54
-128.79
-164.94
-187.72
-198.32
-197.97
-188.04
-170.18
-146.32
-118.55
-88.92
-59.25
-30.95
-4.99
18.09
38.03
54.68
67.84
77.16
82.17
82.43
77.73
68.22
54.51
37.55
18.55
-1.06
-19.64
-35.42
-46.82
-52.85
-53.51
-49.89
-43.86
-37.39
-31.98
-28.24
-25.97
-24.56
-23.50
-22.62
-22.09
-22.23
-23.27
-25.35
-28.49
-32.82
-38.51
-45.75
-54.67
-65.13
-76.84
-89.25
-101.61
-112.78
-121.14
-124.57
-120.70
-107.50
-84.04
-51.06
-11.10
31.91
73.56
109.88
138.06
156.77
165.97
166.61
160.20
148.55
133.58
117.20
101.10
86.61
74.48
64.84
57.36
51.42
46.45
42.13
38.40
35.35
33.00
31.12
29.09
26.06
21.20
13.98
4.41
-6.98
-19.29
-31.53
-42.98
-53.29
-62.58
-71.22
-79.66
-88.17
-96.69
-104.71
-111.31
-115.46
-116.15
-112.73
-105.10
-93.76
-79.64
-63.92
-47.79
-32.27
-18.17
-6.18
3.20
9.70
13.39
14.86
15.02
14.95
15.45
16.71
18.15
18.55
16.61
11.46
3.13
-7.35
-18.29
-27.82
-34.39
-37.03
-35.52
-30.21
-21.92
-11.87
-1.58
7.28
13.17
14.87
11.71
3.65
-8.87
-25.03
-43.79
-64.00
-84.41
-103.69
-120.35
-132.74
-139.19
-138.12
-128.52
-110.30
-84.56
-53.52
-20.15
12.48
41.80
66.10
84.63
97.41
105.01
108.32
108.38
106.24
102.74
98.28
92.72
85.52
76.04
63.98
49.64
33.94
18.14
3.44
-9.34
-19.88
-28.25
-34.83
-40.08
-44.43
-48.31
-52.01
-55.62
-58.95
-61.53
-62.73
-62.04
-59.19
-54.34
-48.09
-41.41
-35.39
-30.98
-28.71
-28.45
-29.36
-30.14
-29.42
-26.30
-20.71
-13.44
-5.83
0.66
5.07
7.04
6.87
5.21
2.81
0.34
-1.65
-2.66
-2.28
-0.20
3.63
8.94
15.11
21.42
27.17
31.91
35.53
38.10
39.82
40.77
40.94
40.24
38.57
35.94
32.46
28.32
23.75
18.92
13.92
8.81
3.62
-1.62
-6.85
-12.03
-17.12
-22.17
-27.26
-32.44
-37.67
-42.69
-46.96
-49.64
-49.75
-46.48
-39.42
-28.78
-15.46
-0.83
13.58
26.46
36.95
44.70
49.78
52.47
53.11
51.99
49.45
45.88
41.78
37.64
33.86
30.66
28.11
26.16
24.77
23.92
23.50
23.27
22.87
21.87
20.11
17.87
15.83
14.90
15.85
18.91
23.72
29.47
35.28
40.56
45.23
49.69
54.50
60.06
66.33
72.83
78.64
82.73
84.17
82.44
77.84
71.90
67.57
68.88
79.77
102.41
135.55
174.10
210.32
236.17
245.77
236.70
209.86
168.38
116.38
58.36
-0.90
-56.42
-103.63
-139.44
-163.32
-177.41
-185.51
-191.53
-198.03
-205.82
-214.31
-222.37
-228.91
-232.90
-233.33
-229.19
-219.91
-205.79
-188.24
-169.54
-152.13
-137.59
-125.96
-115.73
-104.53
-90.26
-72.17
-51.29
-30.15
-11.73
1.68
9.32
11.99
11.46
9.42
6.82
3.66
-0.66
-6.65
-14.32
-23.26
-33.00
-43.35
-54.39
-66.30
-78.96
-91.73
-103.43
-112.83
-119.04
-121.85
-121.63
-119.07
-114.93
-109.79
-103.91
-97.19
-89.40
-80.26
-69.76
-58.01
-45.09
-31.31
-17.23
-3.49
9.31
20.68
30.32
37.87
43.30
47.19
49.87
51.25
51.07
49.06
45.01
38.92
30.42
19.77
8.68
-1.50
-10.12
-16.78
-21.37
-24.07
-25.24
-26.33
-28.41
-30.66
-32.89
-35.67
-39.15
-42.92
-46.14
-47.84
-48.58
-48.65
-46.08
-39.86
-30.33
-18.07
-4.15
9.77
30.05
58.18
81.18
95.04
103.08
106.57
106.25
102.72
97.00
90.70
84.41
78.86
76.23
76.69
78.45
79.84
79.85
78.33
75.86
72.50
68.90
67.43
69.27
73.82
79.89
85.90
90.49
92.86
92.22
88.55
83.25
77.24
70.83
64.48
58.80
54.47
51.89
50.75
50.33
50.24
49.87
48.59
46.20
42.91
39.20
35.55
32.14
29.03
26.25
23.69
21.14
18.51
15.88
13.43
11.51
10.50
10.69
12.10
14.35
16.73
18.43
18.88
17.92
15.98
13.95
12.92
13.98
18.00
25.53
36.56
50.45
65.89
81.09
94.14
103.44
107.99
107.38
101.75
91.66
78.20
63.07
48.46
36.46
28.28
23.40
19.44
12.95
0.75
-18.64
-44.41
-73.95
-104.02
-131.99
-156.33
-176.37
-191.66
-201.55
-205.39
-203.18
-196.11
-186.55
-177.38
-170.90
-168.18
-168.86
-171.60
-174.82
-177.27
-178.27
-177.54
-175.02
-170.70
-164.57
-156.66
-147.14
-136.38
-124.88
-113.03
-100.94
-88.35
-74.63
-59.10
-41.43
-21.97
-1.65
18.28
36.76
53.32
68.07
81.35
93.39
104.11
113.16
120.31
125.73
129.98
133.67
137.13
140.13
142.00
142.02
139.82
135.55
129.61
122.47
114.35
105.37
95.81
86.05
76.52
67.31
57.91
47.30
34.49
19.22
2.39
-14.08
-27.88
-37.08
-40.76
-39.07
-33.18
-24.98
-16.76
-10.81
-8.86
-11.43
-17.67
-25.64
-33.15
-38.83
-42.75
-46.35
-51.49
-59.43
-70.01
-81.74
-92.57
-100.95
-106.53
-110.18
-113.55
-118.17
-124.83
-133.38
-143.02
-152.64
-161.07
-167.08
-169.29
-166.19
-156.63
-140.43
-118.55
-92.91
-65.27
-36.11
-4.04
33.62
78.89
130.97
185.09
233.52
268.24
284.28
281.67
265.10
241.49
217.08
195.38
177.10
161.56
148.26
137.53
130.15
126.22
124.56
123.05
119.66
113.48
105.10
96.05
88.07
82.21
78.48
75.94
73.22
68.94
62.33
53.39
42.90
32.05
22.00
13.43
6.35
0.17
-5.90
-12.49
-19.80
-27.42
-34.57
-40.34
-44.03
-45.39
-44.63
-42.41
-39.50
-36.49
-33.67
-31.01
-28.33
-25.50
-22.53
-19.46
-16.24
-12.72
-8.77
-4.49
-0.34
3.03
5.06
5.60
5.04
4.10
3.49
3.49
3.87
3.95
2.94
0.28
-4.23
-10.24
-17.05
-23.75
-29.50
-33.70
-36.16
-36.96
-36.36
-34.61
-31.99
-28.77
-25.29
-21.82
-18.46
-14.93
-10.59
-4.79
2.69
11.28
19.72
26.38
30.07
30.55
28.75
26.37
25.12
26.05
29.15
33.53
37.93
41.37
43.46
44.50
45.08
45.74
46.72
47.97
49.40
51.04
53.20
56.28
60.54
65.90
71.78
77.32
81.63
84.12
84.70
83.84
82.35
81.01
80.33
80.38
80.95
81.86
83.11
84.76
86.44
87.02
84.51
76.73
62.37
41.82
17.19
-8.46
-32.56
-54.11
-73.80
-93.19
-113.38
-134.18
-154.19
-171.72
-185.84
-196.81
-205.77
-213.92
-221.74
-228.72
-233.91
-236.59
-236.99
-236.07
-235.05
-234.80
-235.52
-236.67
-237.34
-236.72
-234.40
-230.61
-225.57
-219.15
-210.61
-198.89
-182.78
-161.66
-135.88
-106.94
-77.59
-50.67
-28.49
-12.48
-3.25
-0.30
-2.37
-7.68
-14.07
-19.86
-23.13
-22.09
-15.29
-2.29
16.66
40.52
68.23
102.13
142.37
187.17
232.64
273.20
302.44
315.38
309.70
286.94
252.11
211.05
169.06
129.56
96.06
67.66
44.47
27.43
17.53
14.75
16.83
20.23
21.39
17.93
9.05
-3.92
-18.95
-36.03
-55.69
-79.88
-110.33
-146.77
-185.89
-221.80
-247.53
-257.85
-250.88
-227.82
-192.04
-147.05
-95.45
-39.37
17.78
70.54
111.28
132.08
127.83
98.36
49.47
-8.37
-62.94
-103.71
-123.79
-120.55
-95.02
-50.75
6.56
69.33
128.86
176.75
207.02
217.92
212.32
196.40
177.25
160.41
148.57
141.53
137.28
133.54
128.63
121.50
111.49
98.05
80.81
59.93
36.38
11.89
-11.39
-31.40
-46.79
-56.94
-62.00
-62.48
-59.03
-52.24
-42.59
-30.63
-17.05
-2.83
10.89
23.04
32.87
40.00
44.46
46.54
46.57
44.81
41.27
35.82
28.40
19.26
9.12
-0.79
-8.92
-13.83
-14.57
-10.98
-3.76
5.83
16.28
26.16
34.32
39.93
42.49
41.85
38.27
32.40
25.26
17.99
11.63
6.90
4.04
2.90
3.04
3.96
5.18
6.36
7.27
7.82
7.99
7.88
7.59
7.25
6.90
6.49
5.91
4.97
3.51
1.33
-1.78
-6.05
-11.61
-18.40
-25.93
-33.28
-39.23
-42.53
-42.25
-38.10
-30.52
-20.54
-9.46
1.53
11.60
20.32
27.56
33.23
37.21
39.33
39.63
38.52
36.83
35.59
35.75
37.73
41.31
45.65
49.65
52.19
52.41
49.73
43.85
34.76
22.88
9.27
-4.47
-16.39
-24.83
-29.00
-29.36
-27.47
-25.47
-25.37
-28.47
-35.08
-44.59
-55.75
-66.81
-75.85
-80.95
-80.49
-73.56
-60.25
-41.77
-20.23
1.77
21.81
38.07
49.59
56.14
57.98
55.58
49.45
40.24
28.83
16.47
4.65
-5.19
-11.99
-15.28
-15.19
-12.32
-7.48
-1.52
4.72
10.48
15.06
17.92
18.73
17.50
14.57
10.57
6.21
2.12
-1.35
-4.27
-7.09
-10.50
-15.24
-21.80
-30.23
-39.96
-49.83
-58.21
-63.38
-63.95
-59.31
-49.80
-36.68
-21.70
-6.69
6.97
18.48
27.57
34.28
38.73
40.99
41.27
39.95
37.68
35.33
33.74
33.43
34.50
36.54
38.82
40.58
41.19
40.38
38.17
34.79
30.50
25.44
19.69
13.28
6.39
-0.57
-7.04
-12.48
-16.59
-19.42
-21.42
-23.25
-25.67
-29.24
-34.21
-40.30
-46.59
-51.63
-53.87
-52.27
-46.85
-38.94
-30.84
-24.92
-22.85
-24.97
-30.38
-37.35
-43.96
-48.60
-50.16
-48.13
-42.44
-33.53
-22.22
-9.67
2.90
14.39
24.09
31.59
36.77
39.64
40.42
39.43
37.24
34.59
32.23
30.67
30.08
30.17
30.42
30.23
29.24
27.40
24.91
21.98
18.72
14.98
10.43
4.73
-2.34
-10.76
-20.24
-30.27
-40.21
-49.28
-56.76
-61.96
-64.47
-64.21
-61.42
-56.53
-50.00
-42.10
-32.93
-22.59
-11.38
-0.04
10.45
19.04
25.07
28.50
29.87
30.11
30.12
30.53
31.64
33.51
36.09
39.34
43.18
47.39
51.46
54.57
55.80
54.42
50.20
43.45
34.89
25.36
15.54
5.68
-4.31
-14.62
-25.24
-35.84
-45.90
-54.89
-62.52
-68.79
-74.16
-79.47
-85.73
-93.76
-103.95
-116.15
-129.61
-142.80
-153.69
-160.36
-161.76
-157.96
-149.92
-138.95
-126.04
-111.41
-94.06
-72.49
-46.08
-16.11
14.14
40.43
59.04
68.14
68.40
63.38
58.32
58.24
66.21
82.64
105.61
131.85
157.79
178.09
187.40
183.36
168.48
148.58
129.26
113.84
103.21
96.87
92.43
88.31
84.26
80.80
79.44
81.87
88.64
98.31
107.37
111.61
108.56
99.08
85.99
73.29
63.88
57.71
51.71
41.42
23.91
-0.86
-29.76
-59.49
-86.42
-107.64
-122.19
-131.20
-137.19
-142.29
-148.71
-158.39
-175.18
-201.34
-235.65
-273.18
-306.20
-327.01
-330.20
-316.68
-279.88
-225.66
-167.76
-119.30
-85.13
-61.41
-47.08
-37.10
-30.15
-26.96
-29.93
-38.88
-48.20
-53.06
-50.51
-40.29
-23.47
-2.67
19.78
40.93
59.64
76.46
92.07
106.47
118.52
127.47
132.66
134.82
135.13
135.90
139.68
147.49
158.49
170.06
179.58
184.92
185.50
181.63
174.37
164.93
153.82
141.17
126.96
111.84
96.70
82.48
69.41
56.91
43.86
29.15
12.49
-5.30
-22.38
-36.88
-47.60
-54.63
-59.23
-63.25
-68.37
-75.42
-84.29
-94.11
-103.82
-112.65
-120.36
-127.23
-133.86
-140.90
-148.82
-157.79
-167.72
-178.29
-189.03
-199.31
-208.40
-215.51
-219.85
-220.72
-217.63
-210.25
-198.45
-182.42
-162.70
-140.28
-116.63
-93.74
-73.94
-59.48
-51.70
-50.31
-52.92
-55.34
-52.68
-40.94
-18.60
12.88
49.52
86.44
119.45
146.22
166.43
181.14
191.90
200.06
206.50
211.82
216.48
220.89
225.29
229.37
232.19
232.23
227.81
217.69
201.31
178.93
151.39
119.72
84.82
47.28
7.66
-33.07
-73.04
-109.49
-138.92
-157.87
-163.83
-155.99
-135.73
-106.33
-72.36
-38.82
-10.21
10.24
21.26
23.95
21.65
19.39
22.38
34.40
56.48
86.40
119.58
150.61
174.86
189.67
194.38
189.92
178.13
161.40
142.38
123.57
106.81
92.69
80.39
67.95
53.10
34.18
10.90
-15.49
-42.58
-67.41
-87.25
-100.26
-105.99
-105.54
-101.38
-96.59
-93.98
-95.14
-99.96
-106.89
-113.52
-117.58
-117.55
-112.97
-104.26
-92.28
-77.90
-61.76
-44.37
-26.34
-8.53
8.14
23.04
36.12
47.99
59.53
71.29
83.05
93.75
101.98
106.70
107.85
106.50
104.35
102.94
103.09
104.61
106.77
108.75
110.05
110.47
109.83
107.61
102.79
94.06
80.24
60.73
35.95
7.32
-22.86
-51.74
-76.36
-94.28
-104.04
-105.57
-100.19
-90.12
-77.78
-64.89
-51.97
-38.37
-22.81
-4.26
17.33
40.57
62.71
80.31
90.12
89.83
78.50
56.90
27.45
-6.03
-39.05
-67.63
-89.30
-103.60
-111.40
-113.32
-108.38
-93.79
-66.54
-25.89
24.70
77.59
123.46
154.89
169.41
170.22
164.25
158.78
158.35
163.33
170.44
174.30
169.47
151.85
119.72
74.36
20.21
-35.69
-85.26
-121.69
-141.47
-145.31
-137.33
-123.00
-106.97
-91.83
-78.26
-65.90
-54.46
-43.89
-34.09
-24.33
-13.38
-0.09
15.69
32.62
48.26
59.97
65.96
65.96
61.14
53.58
45.50
38.56
33.48
30.08
27.38
23.94
18.11
8.33
-6.43
-26.15
-49.43
-73.58
-95.46
-112.49
-123.48
-128.85
-129.96
-128.22
-124.30
-118.08
-109.11
-97.24
-83.00
-67.39
-51.39
-35.56
-20.04
-4.78
9.94
23.42
34.56
42.25
45.78
45.12
40.99
34.67
27.74
21.68
17.65
16.24
17.48
20.82
25.34
29.96
33.65
35.62
35.40
32.90
28.39
22.43
15.85
9.64
4.76
1.91
1.34
2.72
5.29
8.16
10.58
12.03
12.20
10.81
7.59
2.39
-4.48
-12.06
-18.89
-23.44
-24.75
-22.96
-19.30
-15.75
-14.23
-16.06
-21.53
-29.98
-40.12
-50.43
-59.55
-66.40
-70.28
-70.83
-68.07
-62.38
-54.56
-45.77
-37.32
-30.39
-25.65
-23.02
-21.77
-20.81
-19.27
-16.86
-14.05
-11.75
-10.84
-11.71
-14.15
-17.54
-21.23
-24.93
-28.77
-33.20
-38.58
-44.96
-51.81
-58.20
-62.96
-65.07
-63.95
-59.69
-53.13
-45.58
-38.56
-33.35
-30.75
-31.03
-33.99
-39.24
-46.17
-54.02
-61.81
-68.35
-72.41
-72.98
-69.48
-61.90
-50.89
-37.55
-23.30
-9.50
2.77
13.00
21.26
28.08
34.04
39.45
44.17
47.64
49.14
48.11
44.36
38.11
29.89
20.51
10.90
2.10
-4.80
-8.75
-8.90
-4.70
3.92
16.47
31.99
49.09
66.28
82.13
95.58
106.00
113.14
117.13
118.40
117.59
115.42
112.40
108.55
103.13
94.72
81.61
62.52
37.30
7.27
-25.06
-56.62
-84.71
-107.66
-125.02
-137.22
-145.08
-149.23
-149.97
-147.39
-141.75
-133.72
-124.37
-114.87
-105.96
-97.58
-88.88
-78.50
-65.26
-48.80
-29.93
-10.52
7.08
20.94
30.22
35.38
37.81
39.15
40.53
42.30
44.10
45.32
45.57
44.76
42.96
40.15
36.00
30.01
21.80
11.44
-0.54
-13.24
-25.77
-37.53
-48.28
-58.11
-67.11
-75.15
-81.85
-86.71
-89.38
-89.85
-88.45
-85.63
-81.69
-76.54
-69.68
-60.53
-48.68
-34.16
-17.58
0.10
17.78
34.45
49.34
61.93
71.98
79.57
85.05
89.05
92.22
95.16
98.06
100.78
102.89
103.92
103.69
102.41
100.70
99.26
98.57
98.63
98.93
98.68
97.18
94.17
89.84
84.67
78.97
72.55
64.62
54.01
39.59
20.66
-2.74
-29.77
-58.96
-88.40
-116.04
-140.01
-158.88
-171.94
-179.14
-180.91
-177.75
-169.93
-157.28
-139.62
-117.20
-91.30
-64.30
-39.13
-18.45
-3.75
5.00
9.09
10.32
10.24
9.72
9.16
8.79
9.10
10.88
14.89
21.39
29.91
39.20
47.63
53.67
56.28
55.07
50.28
42.39
31.94
19.30
4.58
-12.14
-30.56
-49.83
-68.48
-84.42
-95.34
-99.28
-95.13
-82.91
-63.74
-39.43
-12.00
16.69
45.01
71.47
94.52
112.62
124.57
129.84
128.93
123.24
114.77
105.45
96.72
89.35
83.56
79.32
76.51
75.07
74.93
75.94
77.89
80.48
83.41
86.43
89.23
91.52
93.02
93.57
93.17
91.89
89.79
86.72
82.31
76.02
67.40
56.20
42.59
27.21
11.14
-4.19
-17.18
-26.49
-31.29
-31.62
-28.24
-22.35
-15.06
-7.03
1.65
11.14
21.49
32.30
42.68
51.40
57.19
58.99
56.08
48.11
35.18
17.91
-2.54
-24.55
-46.26
-65.86
-81.98
-93.86
-101.36
-104.87
-105.08
-102.70
-98.39
-92.67
-86.01
-78.96
-72.13
-66.21
-61.89
-59.70
-59.99
-62.95
-68.62
-76.87
-87.29
-99.11
-111.00
-121.27
-128.11
-129.95
-125.91
-115.95
-100.79
-81.54
-59.31
-34.94
-9.14
17.33
43.23
66.85
86.33
100.20
107.99
110.33
108.75
104.99
100.51
96.08
91.97
88.34
85.46
83.89
84.07
86.02
89.06
91.95
93.35
92.35
88.81
83.40
77.19
71.16
65.76
60.83
55.77
49.87
42.63
33.89
23.83
12.85
1.51
-9.47
-19.34
-27.38
-33.24
-37.12
-39.86
-42.80
-47.24
-54.00
-62.92
-72.92
-82.31
-89.46
-93.31
-93.60
-90.77
-85.56
-78.63
-70.43
-61.42
-52.23
-43.73
-36.68
-31.32
-26.99
-22.22
-15.33
-5.26
7.84
22.56
36.69
48.17
55.72
59.20
59.37
57.32
53.90
49.45
43.77
36.51
27.49
16.97
5.60
-5.85
-16.86
-27.43
-38.03
-49.40
-62.21
-76.71
-92.51
-108.59
-123.43
-135.30
-142.56
-143.97
-138.86
-127.23
-109.65
-87.09
-60.77
-31.97
-2.14
27.18
54.39
78.00
96.86
110.27
118.19
121.07
119.88
115.81
110.19
104.29
99.18
95.58
93.80
93.73
94.94
96.87
98.92
100.69
101.90
102.42
102.23
101.31
99.66
97.23
93.96
89.79
84.68
78.60
71.61
63.74
55.02
45.45
34.90
23.13
9.81
-5.35
-22.45
-41.15
-60.70
-79.94
-97.59
-112.59
-124.29
-132.63
-137.97
-141.01
-142.33
-142.29
-140.85
-137.73
-132.65
-125.40
-115.98
-104.45
-90.74
-74.72
-56.30
-35.82
-14.23
7.03
26.36
42.53
55.06
64.17
70.44
74.34
75.92
74.80
70.48
62.72
51.65
37.93
22.30
5.48
-12.04
-29.89
-47.57
-64.32
-79.02
-90.51
-97.84
-100.48
-98.40
-91.84
-81.24
-67.23
-50.73
-33.05
-15.81
-0.59
11.44
19.80
24.70
26.65
26.13
23.35
18.35
11.41
3.37
-4.21
-9.36
-10.23
-5.79
3.79
17.21
32.49
47.66
61.36
73.08
82.97
91.42
98.69
104.66
108.96
111.21
111.26
109.32
105.77
101.06
95.49
89.20
82.17
74.34
65.61
55.78
44.49
31.27
15.68
-2.40
-22.46
-43.27
-63.11
-80.20
-93.22
-101.62
-105.63
-105.93
-103.38
-98.85
-93.20
-87.29
-81.86
-77.22
-73.14
-68.82
-63.39
-56.45
-48.56
-41.12
-35.97
-34.66
-37.85
-45.15
-55.29
-66.53
-77.04
-85.20
-89.77
-90.01
-85.75
-77.46
-66.22
-53.46
-40.82
-29.80
-21.49
-16.40
-14.36
-14.60
-16.00
-17.35
-17.72
-16.60
-13.98
-10.21
-5.72
-0.77
4.82
11.66
20.41
31.49
44.59
58.55
71.65
82.06
88.54
90.84
89.76
86.78
83.53
81.26
80.55
81.32
82.95
84.52
85.09
83.97
80.89
76.12
70.34
64.44
59.17
54.83
51.19
47.61
43.26
37.50
30.15
21.55
12.59
4.44
-1.85
-5.71
-7.50
-8.68
-11.47
-18.15
-30.11
-47.17
-67.38
-87.61
-104.54
-115.81
-120.71
-120.15
-116.09
-110.74
-105.85
-102.40
-100.61
-100.12
-100.18
-99.71
-97.34
-91.62
-81.32
-65.93
-46.01
-23.30
-0.35
20.21
36.44
47.55
54.01
57.00
57.89
57.70
56.91
55.59
53.61
50.81
47.01
41.85
34.87
25.56
13.72
-0.43
-16.15
-32.43
-48.29
-63.16
-76.97
-89.93
-102.21
-113.44
-122.39
-127.13
-125.49
-115.88
-97.92
-72.83
-43.16
-12.15
17.04
41.95
61.06
73.74
80.05
80.62
76.51
69.22
60.49
51.98
44.98
40.16
37.57
36.88
37.61
39.36
41.90
45.13
49.09
53.90
59.64
66.34
73.82
81.66
89.20
95.63
100.32
102.92
103.52
102.45
100.13
96.81
92.44
86.74
79.36
70.03
58.66
45.35
30.25
13.57
-4.55
-23.97
-44.47
-65.60
-86.64
-106.51
-123.85
-137.28
-145.60
-148.26
-145.58
-138.83
-129.98
-121.21
-114.24
-109.75
-107.14
-104.67
-100.07
-91.16
-76.66
-56.48
-31.81
-4.68
22.55
47.71
69.22
86.11
97.90
104.35
105.25
100.52
90.35
75.48
57.33
37.89
19.25
3.15
-9.49
-18.70
-25.28
-30.34
-34.85
-39.36
-43.94
-48.38
-52.49
-56.28
-59.96
-63.85
-68.17
-72.91
-77.70
-81.89
-84.61
-84.93
-81.99
-75.22
-64.54
-50.33
-33.45
-14.98
3.96
22.29
39.01
53.18
64.00
70.92
74.01
74.00
72.23
70.18
68.90
68.71
69.20
69.71
69.97
70.42
72.11
76.05
82.50
90.57
98.35
103.62
104.72
101.23
94.07
85.17
76.70
70.46
67.43
67.54
69.74
71.99
71.59
65.63
51.71
28.85
-1.94
-37.72
-74.44
-108.14
-136.26
-158.17
-175.03
-188.70
-200.66
-211.29
-219.85
-225.11
-226.08
-222.41
-214.23
-201.63
-184.21
-161.14
-131.73
-96.30
-56.77
-16.50
20.52
50.98
73.21
87.50
95.50
99.34
100.66
100.17
97.88
93.55
87.34
79.95
72.47
65.88
60.65
56.59
52.98
48.87
43.56
36.85
29.07
20.94
13.27
6.70
1.56
-2.04
-4.10
-4.67
-3.75
-1.49
1.78
5.52
9.09
12.06
14.34
16.32
18.74
22.39
27.91
35.58
45.30
56.66
68.92
81.11
92.09
100.66
105.91
107.38
105.21
100.14
93.20
85.47
77.86
71.00
65.20
60.48
56.51
52.60
47.79
41.12
31.85
19.86
5.66
-9.65
-24.73
-38.29
-49.41
-57.67
-63.06
-65.87
-66.47
-65.26
-62.65
-59.07
-55.13
-51.52
-49.02
-48.19
-49.26
-51.91
-55.39
-58.58
-60.28
-59.56
-55.97
-49.72
-41.58
-32.73
-24.36
-17.32
-11.91
-7.80
-4.34
-0.80
3.26
7.91
12.83
17.49
21.28
23.62
23.95
21.82
17.04
9.83
0.94
-8.43
-16.87
-23.21
-26.87
-27.99
-27.26
-25.58
-23.66
-21.86
-20.14
-18.31
-16.12
-13.41
-10.11
-6.24
-1.98
2.25
5.87
8.19
8.66
7.09
3.72
-0.70
-5.09
-8.23
-9.00
-6.65
-1.03
7.40
17.63
28.39
38.62
47.72
55.66
62.81
69.57
76.04
81.96
86.77
89.88
90.93
89.90
87.05
82.79
77.52
71.56
65.18
58.59
51.96
45.43
39.10
33.02
27.26
21.89
16.93
12.36
8.05
3.85
-0.35
-4.57
-8.75
-12.78
-16.59
-20.18
-23.62
-26.97
-30.30
-33.59
-36.69
-39.35
-41.16
-41.68
-40.51
-37.46
-32.57
-26.13
-18.65
-10.75
-3.20
3.08
7.13
8.10
5.57
-0.17
-8.09
-16.67
-24.33
-29.97
-33.21
-34.39
-34.40
-34.20
-34.61
-36.04
-38.51
-41.68
-44.95
-47.72
-49.48
-50.00
-49.37
-47.97
-46.27
-44.60
-43.08
-41.63
-40.10
-38.51
-36.98
-35.82
-35.31
-35.71
-37.12
-39.47
-42.50
-45.64
-48.06
-48.85
-47.13
-42.44
-34.84
-24.99
-13.91
-2.74
7.56
16.36
23.40
28.68
32.32
34.51
35.42
35.21
34.10
32.28
29.97
27.34
24.46
21.41
18.29
15.24
12.52
10.34
8.75
7.60
6.36
4.50
1.59
-2.27
-6.35
-9.45
-10.29
-8.19
-3.48
2.41
7.41
9.56
7.72
1.99
-6.45
-15.78
-24.01
-29.38
-30.49
-26.54
-17.49
-4.41
10.66
24.96
35.84
41.62
42.11
38.57
33.14
27.90
24.24
22.58
22.51
23.29
24.22
24.90
25.21
25.20
24.98
24.62
24.18
23.73
23.40
23.27
23.27
23.06
22.02
19.41
14.59
7.33
-2.07
-12.76
-23.68
-33.89
-42.89
-50.72
-57.77
-64.44
-70.70
-75.91
-78.87
-78.19
-72.81
-62.35
-47.33
-29.06
-9.26
10.35
28.36
43.79
56.05
64.83
70.01
71.60
69.92
65.53
59.34
52.38
45.62
39.81
35.26
31.95
29.57
27.70
25.97
24.11
21.89
19.19
15.90
11.97
7.46
2.54
-2.48
-7.36
-11.91
-16.10
-20.01
-23.77
-27.49
-31.29
-35.31
-39.64
-44.23
-48.75
-52.50
-54.50
-53.83
-49.91
-42.76
-33.06
-21.90
-10.43
0.42
10.09
18.32
24.97
29.93
33.03
34.25
33.79
32.16
30.03
28.05
26.62
25.77
25.20
24.55
23.52
22.02
20.13
17.91
15.38
12.51
9.27
5.66
1.80
-2.21
-6.30
-10.43
-14.61
-18.83
-23.08
-27.38
-31.83
-36.60
-41.71
-46.92
-51.60
-54.78
-55.44
-52.83
-46.80
-37.82
-26.88
-15.20
-3.86
6.32
14.91
21.76
26.88
30.38
32.43
33.22
32.97
31.94
30.41
28.68
27.04
25.76
24.99
24.74
24.81
24.92
24.73
23.96
22.51
20.36
17.65
14.68
11.94
9.99
9.23
9.65
10.65
11.15
9.98
6.39
0.42
-7.05
-14.63
-20.88
-24.78
-25.92
-24.42
-20.74
-15.54
-9.55
-3.51
1.84
5.89
8.30
9.01
8.31
6.68
4.65
2.68
1.07
-0.04
-0.62
-0.72
-0.41
0.21
1.06
1.97
2.80
3.39
3.65
3.51
2.97
2.06
0.87
-0.49
-1.84
-3.01
-3.82
-4.20
-4.22
-4.01
-3.71
-3.26
-2.32
-0.38
3.05
8.07
14.30
20.85
26.68
30.83
32.75
32.36
29.97
26.03
21.08
15.67
10.36
5.66
1.96
-0.59
-2.07
-2.64
-2.40
-1.36
0.52
3.16
6.23
9.21
11.57
12.95
13.29
12.72
11.43
9.50
6.92
3.72
0.01
-3.92
-7.78
-11.41
-14.93
-18.69
-23.12
-28.53
-34.91
-41.82
-48.44
-53.75
-56.75
-56.74
-53.59
-47.72
-39.96
-31.36
-22.80
-14.94
-8.21
-2.79
1.16
3.60
4.64
4.62
4.01
3.31
2.78
2.45
2.16
1.73
1.20
0.78
0.76
1.29
2.25
3.30
4.02
4.12
3.53
2.33
0.70
-1.20
-3.26
-5.34
-7.33
-9.13
-10.82
-12.62
-14.90
-17.96
-21.81
-26.06
-29.86
-32.17
-32.06
-29.10
-23.48
-15.97
-7.66
0.42
7.47
13.12
17.22
19.80
20.88
20.54
18.95
16.50
13.78
11.39
9.79
9.13
9.24
9.76
10.32
10.65
10.62
10.22
9.44
8.31
6.85
5.05
2.96
0.59
-2.03
-4.88
-7.84
-10.81
-13.70
-16.60
-19.73
-23.31
-27.38
-31.54
-34.95
-36.50
-35.28
-30.87
-23.58
-14.31
-4.25
5.47
14.03
20.92
25.89
28.82
29.76
28.91
26.74
23.88
21.02
18.71
17.24
16.57
16.47
16.63
16.75
16.68
16.35
15.77
14.92
13.80
12.35
10.48
8.19
5.52
2.56
-0.55
-3.77
-7.14
-10.81
-14.95
-19.68
-24.88
-30.16
-34.87
-38.19
-39.39
-37.97
-33.82
-27.28
-19.04
-10.02
-1.13
6.86
13.41
18.26
21.36
22.84
22.95
22.00
20.38
18.46
16.63
15.19
14.36
14.17
14.49
15.04
15.48
15.57
15.16
14.25
12.96
11.37
9.55
7.54
5.39
3.15
0.92
-1.31
-3.62
-6.19
-9.25
-12.98
-17.37
-22.26
-27.31
-31.96
-35.53
-37.25
-36.44
-32.67
-26.02
-17.05
-6.76
3.67
13.17
20.98
26.72
30.36
32.11
32.32
31.43
29.90
28.16
26.57
25.34
24.56
24.20
24.11
24.10
24.00
23.62
22.87
21.77
20.34
18.61
16.63
14.37
11.78
8.88
5.76
2.56
-0.55
-3.46
-6.14
-8.74
-11.43
-14.40
-17.65
-20.97
-23.82
-25.48
-25.27
-22.77
-18.01
-11.45
-3.93
3.67
10.49
15.90
19.54
21.29
21.25
19.70
17.09
13.96
10.86
8.24
6.38
5.37
5.11
5.36
5.82
6.22
6.42
6.36
6.09
5.63
4.97
4.04
2.79
1.22
-0.63
-2.66
-4.83
-7.10
-9.54
-12.18
-15.06
-18.17
-21.41
-24.57
-27.28
-28.93
-28.77
-26.12
-20.65
-12.59
-2.82
7.38
16.65
23.93
28.73
31.11
31.50
30.43
28.35
25.60
22.46
19.23
16.28
13.92
12.27
11.25
10.54
9.72
8.48
6.65
4.29
1.59
-1.19
-3.85
-6.25
-8.33
-10.11
-11.60
-12.84
-13.91
-14.94
-16.17
-17.86
-20.15
-22.97
-25.83
-27.96
-28.49
-26.75
-22.42
-15.70
-7.24
2.00
10.97
18.66
24.31
27.50
28.25
27.00
24.50
21.60
19.03
17.18
16.09
15.46
14.91
14.11
12.87
11.11
8.83
6.09
2.96
-0.39
-3.70
-6.71
-9.23
-11.30
-13.13
-15.00
-17.10
-19.45
-21.92
-24.37
-26.79
-29.33
-32.10
-35.03
-37.77
-39.60
-39.77
-37.67
-33.13
-26.47
-18.41
-9.85
-1.67
5.50
11.24
15.35
17.76
18.54
17.91
16.24
14.04
11.85
10.12
9.04
8.63
8.65
8.83
8.92
8.80
8.49
8.09
7.78
7.65
7.71
7.83
7.74
7.14
5.82
3.70
0.90
-2.38
-5.94
-9.73
-13.78
-18.14
-22.65
-26.85
-29.99
-31.30
-30.25
-26.76
-21.29
-14.62
-7.61
-0.99
4.77
9.39
12.77
14.86
15.72
15.48
14.45
13.03
11.61
10.52
9.89
9.72
9.84
10.04
10.11
9.93
9.46
8.73
7.76
6.54
5.06
3.29
1.27
-0.87
-2.99
-4.91
-6.59
-8.11
-9.69
-11.63
-14.16
-17.28
-20.69
-23.72
-25.52
-25.32
-22.66
-17.65
-10.91
-3.37
3.99
10.41
15.41
18.84
20.68
21.06
20.16
18.27
15.78
13.16
10.85
9.15
8.18
7.89
8.05
8.33
8.42
8.04
7.07
5.56
3.61
1.38
-1.02
-3.54
-6.16
-8.81
-11.38
-13.77
-16.01
-18.27
-20.84
-23.94
-27.50
-31.08
-33.90
-35.07
-33.90
-30.16
-24.17
-16.62
-8.46
-0.55
6.40
11.92
15.72
17.75
18.16
17.36
15.86
14.24
12.94
12.17
11.93
12.02
12.24
12.38
12.30
11.85
10.92
9.46
7.48
5.08
2.43
-0.31
-3.08
-5.82
-8.59
-11.53
-14.78
-18.49
-22.78
-27.60
-32.69
-37.49
-41.23
-43.08
-42.38
-38.85
-32.77
-24.87
-16.19
-7.71
-0.23
5.82
10.28
13.17
14.62
14.84
14.14
12.90
11.58
10.56
10.10
10.31
11.08
12.25
13.56
14.79
15.70
16.13
15.96
15.15
13.70
11.64
9.02
5.97
2.64
-0.80
-4.30
-7.95
-11.93
-16.49
-21.71
-27.38
-32.91
-37.42
-39.86
-39.40
-35.67
-28.90
-19.93
-9.95
-0.11
8.71
16.09
22.03
26.85
30.89
34.45
37.74
40.81
43.64
46.11
48.02
49.18
49.54
49.19
48.37
47.35
46.31
45.16
43.66
41.46
38.30
34.09
28.92
23.06
16.83
10.53
4.36
-1.61
-7.45
-13.31
-19.41
-25.89
-32.70
-39.51
-45.71
-50.46
-52.87
-52.30
-48.52
-41.88
-33.23
-23.75
-14.65
-6.90
-1.04
2.83
4.93
5.66
5.47
4.83
4.15
3.79
3.96
4.68
5.79
7.00
8.00
8.60
8.71
8.35
7.55
6.36
4.79
2.92
0.85
-1.30
-3.41
-5.43
-7.42
-9.47
-11.73
-14.36
-17.46
-21.01
-24.86
-28.58
-31.53
-32.88
-31.88
-28.08
-21.56
-12.97
-3.40
5.93
14.02
20.22
24.31
26.39
26.72
25.64
23.53
20.89
18.25
16.13
14.85
14.50
14.87
15.55
16.10
16.17
15.64
14.55
13.06
11.31
9.35
7.13
4.52
1.48
-1.94
-5.60
-9.36
-13.19
-17.24
-21.72
-26.69
-31.91
-36.68
-39.99
-40.82
-38.46
-32.84
-24.54
-14.66
-4.47
4.95
12.83
18.83
22.84
24.97
25.42
24.55
22.82
20.85
19.17
18.13
17.81
17.98
18.37
18.69
18.80
18.63
18.10
17.07
15.36
12.90
9.78
6.31
2.85
-0.27
-2.94
-5.26
-7.50
-10.05
-13.25
-17.31
-22.19
-27.52
-32.56
-36.32
-37.80
-36.24
-31.43
-23.72
-14.00
-3.39
7.07
16.62
24.87
31.63
36.80
40.24
41.73
41.23
38.98
35.57
31.84
28.55
26.12
24.50
23.26
21.86
19.90
17.28
14.12
10.69
7.22
3.88
0.80
-1.93
-4.23
-6.11
-7.67
-9.14
-10.81
-12.91
-15.60
-18.95
-22.87
-27.10
-31.12
-34.21
-35.52
-34.31
-30.24
-23.42
-14.53
-4.53
5.52
14.65
22.13
27.43
30.23
30.40
28.11
23.83
18.45
13.15
9.16
7.43
8.26
11.16
14.99
18.40
20.31
20.23
18.34
15.30
11.86
8.59
5.79
3.52
1.79
0.55
-0.24
-0.72
-1.11
-1.79
-3.20
-5.76
-9.69
-14.79
-20.34
-25.23
-28.26
-28.60
-26.14
-21.55
-16.02
-10.75
-6.59
-3.89
-2.63
-2.69
-3.97
-6.38
-9.66
-13.21
-16.23
-17.90
-17.71
-15.66
-12.21
-8.02
-3.75
0.19
3.60
6.40
8.58
10.04
10.64
10.29
8.95
6.66
3.52
-0.36
-4.87
-9.89
-15.28
-20.92
-26.63
-32.24
-37.44
-41.64
-43.97
-43.43
-39.21
-31.09
-19.65
-6.25
7.42
19.74
29.60
36.49
40.40
41.57
40.37
37.23
32.73
27.64
22.81
19.03
16.73
15.94
16.24
17.01
17.57
17.50
16.63
15.10
13.27
11.54
10.18
9.25
8.54
7.65
6.14
3.64
-0.01
-4.82
-10.70
-17.49
-24.96
-32.67
-39.88
-45.58
-48.59
-48.00
-43.46
-35.38
-24.86
-13.25
-1.86
8.34
16.86
23.46
28.09
30.74
31.47
30.55
28.43
25.80
23.33
21.52
20.54
20.20
20.13
19.94
19.36
18.32
16.82
14.91
12.60
9.91
6.92
3.76
0.66
-2.20
-4.75
-7.10
-9.47
-12.14
-15.37
-19.30
-23.87
-28.78
-33.36
-36.67
-37.67
-35.52
-29.95
-21.42
-11.08
-0.40
9.20
16.81
22.11
25.21
26.46
26.19
24.64
22.04
18.73
15.17
11.90
9.30
7.52
6.43
5.75
5.16
4.46
3.55
2.40
1.00
-0.74
-2.90
-5.49
-8.42
-11.40
-14.08
-16.16
-17.56
-18.42
-19.15
-20.22
-22.02
-24.66
-27.86
-30.93
-32.94
-32.89
-30.08
-24.32
-15.99
-6.01
4.50
14.46
23.07
29.89
34.72
37.58
38.57
37.94
36.09
33.58
31.02
28.86
27.36
26.47
25.97
25.60
25.18
24.62
23.84
22.78
21.30
19.32
16.80
13.82
10.55
7.20
3.92
0.78
-2.22
-5.18
-8.24
-11.59
-15.38
-19.64
-24.18
-28.56
-32.11
-33.99
-33.46
-30.05
-23.79
-15.21
-5.30
4.76
13.85
21.14
26.17
28.86
29.41
28.26
25.96
23.15
20.45
18.28
16.81
15.93
15.39
14.90
14.28
13.49
12.55
11.50
10.31
8.88
7.13
5.05
2.71
0.18
-2.43
-5.16
-8.05
-11.20
-14.69
-18.52
-22.72
-27.22
-31.85
-36.21
-39.63
-41.26
-40.30
-36.28
-29.34
-20.24
-10.19
-0.48
7.85
14.23
18.58
21.13
22.23
22.20
21.25
19.64
17.64
15.64
14.04
13.14
12.99
13.34
13.73
13.66
12.80
11.07
8.62
5.70
2.54
-0.80
-4.35
-8.14
-12.12
-16.09
-19.84
-23.28
-26.53
-29.89
-33.68
-38.00
-42.53
-46.53
-48.92
-48.62
-44.89
-37.67
-27.69
-16.23
-4.85
5.14
12.89
18.19
21.23
22.44
22.23
20.96
18.99
16.74
14.72
13.39
13.03
13.63
14.86
16.21
17.14
17.26
16.39
14.58
11.96
8.77
5.19
1.37
-2.51
-6.35
-10.04
-13.58
-17.11
-20.83
-25.05
-29.91
-35.28
-40.59
-44.83
-46.80
-45.47
-40.34
-31.69
-20.57
-8.43
3.23
13.30
21.20
26.82
30.29
31.84
31.73
30.29
28.00
25.47
23.28
21.82
21.11
20.88
20.69
20.07
18.74
16.62
13.86
10.65
7.22
3.71
0.14
-3.51
-7.28
-11.17
-15.10
-18.95
-22.63
-26.17
-29.71
-33.45
-37.48
-41.57
-45.13
-47.16
-46.70
-43.07
-36.28
-27.06
-16.64
-6.38
2.66
9.87
15.11
18.48
20.18
20.44
19.56
18.00
16.35
15.15
14.71
14.92
15.29
15.09
13.67
10.78
6.63
1.93
-2.40
-5.48
-6.73
-6.04
-3.86
-1.00
1.57
3.08
3.11
1.74
-0.63
-3.48
-6.37
-9.01
-11.20
-12.73
-13.32
-12.77
-11.01
-8.29
-5.01
-1.60
1.70
4.90
8.14
11.51
14.90
18.01
20.49
22.11
22.93
23.15
23.03
22.70
22.07
20.97
19.24
16.95
14.39
11.93
9.84
8.12
6.50
4.46
1.50
-2.72
-8.16
-14.46
-21.02
-27.23
-32.63
-37.09
-40.75
-43.89
-46.73
-49.22
-50.99
-51.33
-49.36
-44.33
-35.84
-24.06
-9.83
5.46
20.20
32.97
42.82
49.54
53.36
54.86
54.65
53.28
51.24
49.06
47.20
45.96
45.42
45.36
45.32
44.78
43.31
40.61
36.53
31.12
24.66
17.66
10.72
4.40
-1.06
-5.80
-10.29
-15.11
-20.72
-27.37
-35.07
-43.75
-53.20
-62.95
-72.13
-79.40
-83.26
-82.43
-76.40
-65.59
-51.31
-35.31
-19.38
-4.99
6.91
15.79
21.63
24.79
26.05
26.42
26.89
28.17
30.51
33.68
37.07
39.92
41.47
41.20
38.91
34.84
29.73
24.58
20.41
17.78
16.65
16.44
16.34
15.70
14.22
11.97
9.11
5.78
2.04
-2.00
-6.00
-9.31
-11.08
-10.55
-7.32
-1.56
6.03
14.46
22.73
30.18
36.59
42.01
46.51
49.89
51.56
50.70
46.71
39.59
30.10
19.61
9.63
1.27
-5.13
-10.04
-14.51
-19.78
-26.75
-35.78
-46.46
-57.80
-68.45
-77.14
-83.01
-85.97
-86.72
-86.56
-87.06
-89.53
-94.62
-102.16
-111.27
-120.51
-128.23
-132.76
-132.55
-126.36
-113.52
-94.22
-69.71
-42.30
-14.94
9.46
28.75
42.05
49.72
53.03
53.58
52.81
51.72
50.91
50.70
51.21
52.50
54.46
56.91
59.56
62.19
64.60
66.68
68.30
69.25
69.26
68.06
65.50
61.72
57.09
52.08
47.05
42.05
36.81
30.94
24.22
16.92
9.88
4.32
1.36
1.73
5.51
12.18
20.89
30.55
39.94
47.79
52.91
54.45
52.23
46.90
39.70
32.07
25.05
18.94
13.43
7.90
1.96
-4.38
-10.77
-16.90
-22.70
-28.53
-34.94
-42.52
-51.53
-61.75
-72.46
-82.52
-90.59
-95.55
-96.93
-95.24
-92.02
-89.33
-89.03
-91.96
-97.40
-103.32
-106.98
-105.86
-98.40
-84.26
-64.11
-39.25
-11.21
18.39
47.87
75.31
98.66
115.95
125.72
127.44
121.71
110.21
95.42
80.06
66.56
56.57
50.55
47.63
45.84
42.65
35.87
24.46
9.00
-8.45
-24.98
-37.82
-45.20
-46.91
-44.25
-39.55
-35.30
-33.24
-33.71
-35.47
-36.14
-33.16
-24.75
-10.66
7.85
28.58
49.09
67.39
82.07
92.25
97.40
97.40
92.65
84.31
74.08
63.92
55.36
49.09
44.81
41.50
37.82
32.54
24.77
13.96
0.01
-16.64
-34.92
-53.12
-69.13
-80.99
-87.40
-88.13
-84.08
-77.14
-69.80
-64.71
-64.22
-69.76
-81.28
-96.94
-113.25
-125.82
-130.63
-125.15
-109.06
-84.22
-53.90
-21.83
8.75
35.62
57.76
75.14
88.42
98.60
106.57
112.80
116.92
117.55
112.55
99.68
77.78
48.07
14.67
-15.92
-36.83
-43.36
-35.05
-15.95
7.10
27.39
40.92
47.25
48.43
46.87
43.59
37.89
28.38
14.57
-2.10
-18.62
-31.54
-38.32
-38.14
-31.74
-20.74
-6.96
8.04
22.94
36.58
47.78
55.48
58.94
58.01
53.30
46.04
37.87
30.30
24.36
20.26
17.51
15.19
12.39
8.52
3.34
-3.22
-11.25
-21.00
-32.72
-46.34
-61.25
-76.23
-89.70
-100.07
-106.10
-107.15
-103.35
-95.66
-85.91
-76.64
-70.60
-69.98
-75.62
-86.46
-99.54
-110.73
-115.76
-111.30
-95.75
-69.45
-34.55
5.54
46.68
84.63
115.58
136.77
146.98
146.89
138.93
126.84
114.64
105.46
100.61
99.13
98.20
94.34
84.92
69.41
49.73
29.65
13.39
4.09
2.80
8.40
18.26
29.39
39.36
46.68
50.81
51.88
50.41
47.19
43.35
40.28
39.39
41.76
47.68
56.29
65.62
73.05
76.26
74.06
66.95
56.93
46.70
38.59
33.69
31.60
30.82
29.64
26.87
22.18
16.03
9.09
1.79
-6.00
-14.83
-25.29
-37.62
-51.38
-65.48
-78.44
-88.83
-95.54
-97.92
-95.84
-89.76
-80.79
-70.79
-62.29
-57.95
-59.81
-68.63
-83.42
-101.70
-120.13
-135.26
-144.24
-145.26
-137.74
-122.45
-101.41
-77.60
-54.23
-33.91
-17.90
-5.87
3.70
12.67
22.38
33.09
43.93
53.03
58.09
56.91
48.28
32.84
13.45
-5.34
-18.72
-23.49
-19.27
-8.52
4.85
17.24
26.63
32.57
35.26
34.60
29.90
20.70
7.65
-6.87
-19.42
-26.89
-27.84
-22.99
-14.72
-5.82
1.64
6.80
9.68
10.66
9.99
7.92
5.01
2.32
1.28
3.16
8.47
16.68
26.44
36.10
44.30
50.21
53.48
53.89
51.07
44.50
33.67
18.47
-0.58
-22.11
-43.88
-63.06
-76.64
-82.32
-79.25
-68.68
-53.80
-38.85
-27.70
-22.54
-23.30
-28.11
-34.45
-40.39
-45.08
-48.56
-50.86
-51.46
-49.18
-42.82
-31.95
-17.45
-1.38
13.71
25.49
32.36
33.56
29.20
20.32
9.09
-1.30
-7.02
-4.75
7.06
27.29
52.13
76.27
94.91
105.42
107.93
104.81
99.06
92.90
87.11
81.35
75.03
68.14
61.28
55.28
50.49
46.31
41.32
33.91
23.02
8.56
-8.45
-26.31
-43.22
-57.73
-69.15
-77.52
-83.38
-87.38
-90.13
-92.16
-94.06
-96.49
-99.94
-104.32
-108.63
-111.10
-109.61
-102.57
-89.44
-71.03
-49.16
-26.20
-4.52
13.96
27.91
36.69
40.40
39.85
36.41
31.78
27.57
24.95
24.33
25.35
26.94
27.75
26.61
23.07
17.65
11.77
7.27
5.76
7.99
13.74
21.99
31.34
40.49
48.36
54.24
57.70
58.63
57.23
53.88
48.87
42.15
33.30
21.86
7.88
-7.49
-21.92
-32.46
-36.54
-32.93
-22.15
-6.21
12.29
31.03
48.57
64.25
77.73
88.53
95.85
98.80
96.96
90.71
81.24
70.25
59.22
48.95
39.39
29.91
19.88
9.18
-1.60
-11.31
-18.68
-22.97
-24.29
-23.70
-22.86
-23.53
-26.90
-33.21
-41.61
-50.24
-56.80
-59.09
-55.69
-46.45
-32.58
-16.36
-0.61
12.06
19.75
21.62
17.91
9.79
-1.01
-12.56
-23.06
-31.20
-36.32
-38.46
-38.35
-37.13
-36.21
-36.86
-40.08
-46.45
-56.24
-69.55
-86.29
-105.96
-127.23
-147.67
-163.96
-172.71
-171.60
-160.31
-140.74
-116.44
-91.38
-68.93
-51.21
-39.14
-32.81
-31.70
-34.68
-39.93
-44.96
-47.04
-44.04
-35.10
-21.07
-4.13
13.07
28.46
41.29
52.23
62.83
74.55
87.99
102.46
116.29
127.45
134.37
136.41
133.98
128.24
120.53
111.95
103.01
93.78
84.02
73.58
62.57
51.40
40.63
30.71
21.81
13.75
6.16
-1.33
-9.04
-17.13
-25.65
-34.55
-43.73
-52.91
-61.67
-69.43
-75.54
-79.46
-80.82
-79.54
-75.87
-70.35
-63.77
-56.99
-50.71
-45.04
-39.21
-31.60
-20.22
-3.55
18.42
43.69
68.30
87.15
95.38
89.89
70.50
40.56
6.58
-23.10
-40.77
-42.12
-28.18
-5.44
16.39
28.27
25.50
9.43
-13.49
-34.91
-48.12
-50.22
-42.17
-27.15
-8.65
10.86
29.91
47.46
62.36
73.27
79.16
79.83
76.05
69.44
61.97
55.29
50.28
46.93
44.59
42.49
40.24
38.19
37.32
38.74
43.02
49.77
57.48
63.98
67.10
65.42
58.77
48.33
36.24
24.88
16.05
10.45
7.61
6.27
5.12
3.37
1.01
-1.35
-2.99
-3.55
-3.30
-3.03
-3.74
-6.16
-10.60
-16.94
-24.84
-34.02
-44.40
-56.05
-68.90
-82.55
-96.11
-108.26
-117.63
-123.03
-123.84
-120.12
-112.64
-102.80
-92.43
-83.48
-77.62
-75.72
-77.53
-81.49
-85.16
-85.84
-81.47
-71.26
-55.85
-37.03
-17.01
2.18
19.10
32.90
43.04
49.19
51.18
49.20
43.97
36.70
28.86
21.82
16.48
13.22
11.90
12.08
13.21
14.75
16.23
17.33
17.84
17.70
16.91
15.57
13.81
11.79
9.65
7.54
5.68
4.43
4.26
5.70
9.11
14.50
21.39
28.84
35.77
41.28
44.97
46.96
47.78
48.09
48.36
48.77
49.26
49.70
50.09
50.61
51.58
53.28
55.75
58.74
61.75
64.17
65.43
65.15
63.16
59.46
54.05
46.96
38.29
28.23
17.20
5.75
-5.56
-16.28
-26.27
-35.65
-44.73
-53.82
-63.11
-72.45
-81.32
-88.85
-93.96
-95.64
-93.19
-86.43
-75.81
-62.34
-47.31
-32.02
-17.52
-4.53
6.56
15.56
22.32
26.76
28.89
28.95
27.44
25.04
22.42
20.03
17.90
15.75
13.09
9.43
4.44
-2.04
-10.03
-19.47
-30.11
-41.51
-52.94
-63.50
-72.37
-78.98
-83.24
-85.51
-86.42
-86.71
-87.08
-88.15
-90.46
-94.30
-99.63
-105.77
-111.42
-114.86
-114.39
-108.83
-97.95
-82.42
-63.56
-42.95
-22.02
-1.89
16.71
33.22
47.29
58.71
67.47
73.82
78.20
81.13
82.99
83.99
84.05
83.03
80.88
77.74
74.01
70.24
67.01
64.71
63.49
63.19
63.39
63.45
62.68
60.56
56.88
51.80
45.86
39.67
33.69
28.00
22.31
16.06
8.70
-0.12
-10.32
-21.26
-31.81
-40.51
-45.88
-46.86
-43.07
-35.06
-24.02
-11.49
1.09
12.66
22.51
30.16
35.18
37.30
36.42
32.88
27.46
21.21
15.17
10.13
6.47
4.20
3.04
2.62
2.50
2.32
1.86
1.11
0.31
-0.19
-0.02
1.02
2.84
4.97
6.69
7.11
5.34
0.79
-6.78
-17.07
-29.19
-41.74
-52.96
-61.06
-64.57
-62.70
-55.60
-44.33
-30.62
-16.38
-3.29
7.58
15.79
21.46
24.97
26.81
27.43
27.30
26.88
26.62
26.82
27.53
28.57
29.60
30.36
30.77
30.95
31.11
31.31
31.35
30.79
29.05
25.74
20.80
14.53
7.51
0.34
-6.45
-12.64
-18.20
-23.31
-28.27
-33.41
-39.01
-45.12
-51.40
-57.00
-60.65
-60.92
-56.67
-47.52
-34.07
-17.75
-0.42
16.12
30.54
42.13
50.72
56.48
59.78
61.07
60.87
59.73
58.12
56.46
54.94
53.53
51.99
49.96
47.06
43.10
38.16
32.65
27.13
22.10
17.71
13.73
9.63
4.88
-0.79
-7.29
-14.22
-21.06
-27.47
-33.37
-38.97
-44.66
-50.82
-57.63
-64.92
-72.12
-78.30
-82.29
-82.97
-79.57
-71.90
-60.45
-46.30
-30.85
-15.48
-1.33
10.89
20.77
28.19
33.30
36.42
38.06
38.84
39.35
39.96
40.75
41.48
41.69
40.90
38.69
34.79
29.22
22.33
14.78
7.50
1.47
-2.53
-4.16
-3.58
-1.39
1.54
4.31
6.09
6.22
4.21
-0.11
-6.52
-14.32
-22.30
-28.86
-32.41
-31.73
-26.34
-16.79
-4.45
8.81
21.12
31.14
38.26
42.53
44.39
44.36
42.83
40.11
36.49
32.39
28.36
24.98
22.73
21.78
22.02
23.05
24.38
25.57
26.34
26.60
26.29
25.39
23.77
21.32
17.99
13.90
9.41
4.94
0.88
-2.70
-6.01
-9.46
-13.47
-18.23
-23.58
-28.95
-33.57
-36.53
-37.04
-34.58
-29.04
-20.82
-10.74
0.09
10.58
19.75
26.99
31.99
34.69
35.19
33.70
30.62
26.49
22.00
17.83
14.49
12.18
10.85
10.15
9.69
9.12
8.15
6.60
4.44
1.72
-1.44
-4.85
-8.33
-11.71
-14.91
-17.94
-20.88
-23.88
-27.14
-30.84
-35.12
-39.87
-44.74
-49.05
-51.98
-52.66
-50.51
-45.36
-37.59
-28.02
-17.76
-7.89
0.72
7.50
12.25
15.00
15.97
15.49
13.97
11.87
9.62
7.59
5.97
4.79
3.94
3.19
2.33
1.15
-0.43
-2.39
-4.62
-6.94
-9.19
-11.29
-13.27
-15.19
-17.15
-19.17
-21.24
-23.31
-25.42
-27.72
-30.46
-33.83
-37.86
-42.15
-45.94
-48.15
-47.73
-43.97
-36.76
-26.74
-15.10
-3.29
7.30
15.67
21.34
24.37
25.13
24.17
22.05
19.23
16.12
13.08
10.50
8.73
8.06
8.57
10.14
12.39
14.76
16.65
17.56
17.24
15.76
13.48
10.94
8.63
6.81
5.40
3.99
2.03
-0.97
-5.14
-10.02
-14.47
-16.77
-15.00
-7.74
5.46
23.54
44.09
63.90
79.90
89.94
93.28
90.53
83.15
72.90
61.36
49.69
38.65
28.65
19.87
12.28
5.73
0.02
-5.04
-9.55
-13.56
-17.11
-20.25
-23.04
-25.60
-28.05
-30.58
-33.38
-36.61
-40.34
-44.48
-48.87
-53.30
-57.63
-61.87
-66.15
-70.52
-74.81
-78.45
-80.51
-79.83
-75.44
-66.94
-54.70
-39.92
-24.29
-9.56
2.84
12.10
18.04
20.98
21.52
20.36
18.19
15.64
13.30
11.58
10.73
10.73
11.33
12.12
12.71
12.80
12.35
11.45
10.30
9.00
7.53
5.72
3.44
0.66
-2.50
-5.82
-9.15
-12.56
-16.30
-20.70
-25.91
-31.63
-37.04
-40.94
-42.11
-39.66
-33.41
-23.92
-12.39
-0.32
10.81
19.83
26.06
29.31
29.86
28.24
25.13
21.22
17.16
13.54
10.82
9.30
9.03
9.75
10.99
12.20
12.89
12.80
11.94
10.49
8.66
6.66
4.63
2.66
0.83
-0.85
-2.51
-4.40
-6.86
-10.21
-14.58
-19.75
-25.14
-29.78
-32.58
-32.62
-29.33
-22.80
-13.69
-3.15
7.48
16.95
24.32
29.09
31.18
30.86
28.68
25.36
21.63
18.13
15.30
13.36
12.30
11.96
12.09
12.39
12.55
12.26
11.31
9.62
7.32
4.65
1.84
-0.94
-3.76
-6.78
-10.15
-13.92
-18.02
-22.31
-26.69
-31.06
-35.25
-38.83
-41.06
-41.04
-38.00
-31.66
-22.44
-11.42
-0.01
10.38
18.75
24.59
27.84
28.71
27.59
24.91
21.22
17.14
13.31
10.34
8.61
8.18
8.81
10.00
11.18
11.87
11.80
10.89
9.29
7.21
4.87
2.44
0.00
-2.47
-5.10
-8.08
-11.62
-15.80
-20.56
-25.57
-30.21
-33.59
-34.74
-32.89
-27.69
-19.48
-9.20
1.76
11.98
20.28
25.98
28.92
29.34
27.68
24.51
20.45
16.14
12.19
9.13
7.30
6.73
7.17
8.09
8.94
9.25
8.75
7.45
5.55
3.31
0.93
-1.52
-4.06
-6.83
-9.90
-13.32
-17.12
-21.32
-25.90
-30.71
-35.33
-39.03
-40.89
-39.98
-35.75
-28.31
-18.41
-7.35
3.46
12.79
19.85
24.33
26.29
26.02
23.92
20.50
16.34
12.10
8.44
5.88
4.70
4.85
5.96
7.44
8.61
8.91
8.04
5.97
2.96
-0.64
-4.45
-8.20
-11.78
-15.24
-18.77
-22.61
-27.02
-32.07
-37.51
-42.68
-46.57
-48.00
-46.02
-40.26
-31.09
-19.63
-7.43
3.96
13.33
19.99
23.82
25.08
24.23
21.81
18.38
14.51
10.75
7.61
5.48
4.49
4.52
5.17
5.87
6.08
5.43
3.79
1.34
-1.60
-4.74
-7.83
-10.85
-13.94
-17.30
-21.17
-25.69
-30.93
-36.73
-42.71
-48.20
-52.26
-53.87
-52.14
-46.58
-37.32
-25.22
-11.66
1.71
13.39
22.32
28.07
30.79
31.06
29.63
27.25
24.62
22.33
20.89
20.65
21.87
24.58
28.61
33.62
39.17
44.82
50.10
54.64
58.05
59.86
59.46
56.21
49.70
40.01
27.87
14.51
1.27
-10.90
-21.58
-30.80
-38.52
-44.32
-47.22
-46.20
-40.74
-31.34
-19.50
-7.21
3.69
12.07
17.57
20.40
20.98
19.75
17.21
13.96
10.82
8.58
7.86
8.85
11.29
14.58
18.02
21.07
23.34
24.66
24.96
24.27
22.67
20.27
17.19
13.52
9.33
4.68
-0.25
-5.22
-9.92
-14.13
-17.89
-21.48
-25.36
-29.90
-35.01
-40.03
-43.75
-44.85
-42.41
-36.26
-27.16
-16.50
-5.76
3.86
11.74
17.64
21.47
23.08
22.29
19.13
13.96
7.52
0.66
-6.03
-12.36
-18.49
-24.59
-30.51
-35.55
-38.72
-39.09
-36.29
-30.71
-23.40
-15.70
-8.80
-3.43
0.15
1.98
2.04
0.04
-4.51
-12.07
-22.53
-34.85
-47.09
-56.72
-61.41
-59.67
-51.32
-37.45
-20.02
-1.17
17.30
34.14
48.59
60.11
68.18
72.34
72.45
68.93
62.84
55.78
49.32
44.63
42.07
41.21
41.09
40.67
39.19
36.29
31.98
26.52
20.31
13.85
7.78
2.89
-0.08
-0.49
1.87
6.66
13.06
19.81
25.50
29.00
29.67
27.62
23.71
19.35
16.09
15.19
17.25
22.02
28.55
35.49
41.58
46.00
48.60
49.71
49.88
49.50
48.52
46.54
43.01
37.54
30.27
21.85
13.30
5.68
-0.38
-4.94
-8.91
-14.01
-22.28
-35.46
-54.29
-77.84
-103.53
-127.53
-145.93
-155.79
-156.19
-148.37
-135.34
-120.88
-108.49
-100.53
-97.70
-99.02
-102.01
-103.36
-99.66
-88.33
-68.39
-40.72
-7.88
26.64
59.36
87.55
109.64
125.16
134.50
138.53
138.42
135.47
130.95
125.99
121.36
117.25
113.29
108.70
102.70
94.89
85.52
75.48
66.07
58.53
53.58
51.09
49.90
48.03
43.22
33.58
18.32
-1.88
-25.07
-48.71
-70.50
-89.07
-104.08
-115.73
-124.05
-128.37
-127.46
-120.09
-105.85
-85.68
-61.70
-36.59
-12.64
8.83
27.59
44.02
58.46
70.79
80.45
86.91
90.16
91.04
90.92
91.15
92.47
94.67
96.71
97.17
94.76
88.72
79.00
66.13
51.03
34.83
18.57
3.04
-11.30
-24.36
-36.25
-47.15
-57.19
-66.47
-75.14
-83.43
-91.66
-100.09
-108.70
-117.10
-124.54
-130.10
-132.88
-132.21
-127.69
-119.25
-107.10
-91.79
-74.19
-55.37
-36.43
-18.32
-1.73
12.74
24.36
32.22
35.39
33.43
26.91
17.65
8.35
1.83
0.17
4.03
12.72
24.66
38.07
51.47
63.78
74.04
81.28
84.44
82.66
75.68
64.09
49.31
33.18
17.45
3.25
-9.05
-19.80
-29.78
-39.80
-50.50
-62.11
-74.28
-86.02
-95.83
-102.09
-103.56
-99.87
-91.76
-80.72
-68.41
-55.93
-43.44
-30.24
-15.36
1.78
20.97
41.17
60.87
78.56
93.04
103.62
110.03
112.29
110.65
105.60
97.87
88.46
78.46
68.89
60.42
53.19
46.94
41.12
35.14
28.63
21.45
13.66
5.35
-3.54
-13.24
-24.07
-36.35
-50.24
-65.65
-82.25
-99.49
-116.66
-133.00
-147.77
-160.23
-169.65
-175.15
-175.78
-170.60
-158.95
-140.91
-117.52
-90.95
-64.01
-39.61
-19.79
-5.13
5.41
14.10
23.58
35.86
51.60
69.97
89.08
106.74
121.21
131.65
138.02
140.77
140.34
137.01
130.90
122.21
111.41
99.25
86.60
74.21
62.57
51.80
41.84
32.54
23.82
15.63
7.91
0.42
-7.19
-15.29
-24.00
-33.03
-41.69
-49.12
-54.71
-58.49
-61.18
-63.97
-67.95
-73.59
-80.46
-87.31
-92.33
-93.64
-89.69
-79.49
-62.85
-40.35
-13.31
16.37
46.47
74.70
99.09
118.16
131.12
137.95
139.35
136.54
131.01
124.14
116.89
109.73
102.65
95.48
88.13
80.81
74.01
68.27
63.87
60.49
57.06
51.86
42.89
28.45
7.74
-18.68
-48.87
-79.87
-108.47
-131.98
-148.77
-158.51
-161.89
-160.23
-154.99
-147.57
-139.19
-130.98
-124.15
-120.00
-119.71
-124.04
-132.82
-144.64
-156.79
-165.62
-167.32
-158.77
-138.42
-106.74
-66.23
-20.83
24.82
66.38
100.42
124.88
139.15
143.74
140.13
130.39
117.03
102.76
90.20
81.42
77.41
77.84
81.13
85.09
87.86
88.68
88.24
88.23
90.29
94.97
101.25
106.73
108.73
105.41
96.50
83.25
67.70
51.77
36.55
22.14
8.09
-6.08
-20.33
-33.96
-45.86
-54.88
-60.33
-62.00
-60.09
-54.78
-46.10
-34.02
-18.83
-1.33
17.17
35.30
52.15
67.58
82.04
96.23
110.61
125.33
140.33
155.67
171.44
187.45
202.68
215.07
221.68
219.47
206.14
180.91
144.83
100.67
52.39
4.25
-40.05
-78.11
-109.15
-133.77
-153.31
-169.14
-182.10
-192.49
-200.43
-206.27
-210.63
-214.04
-216.36
-216.35
-212.00
-201.41
-183.93
-160.90
-135.56
-112.01
-93.87
-83.01
-79.18
-80.31
-83.51
-86.11
-86.36
-83.63
-78.17
-70.64
-61.68
-51.69
-40.86
-29.41
-17.74
-6.46
3.75
12.42
19.53
25.47
30.83
35.99
40.83
44.79
47.20
47.76
47.02
46.27
47.18
51.12
58.65
69.14
81.02
92.17
100.59
104.94
104.76
100.49
93.20
84.23
74.88
66.22
59.05
53.81
50.59
49.01
48.21
46.88
43.60
37.16
27.00
13.38
-2.72
-20.02
-37.31
-53.70
-68.55
-81.20
-90.71
-95.94
-95.85
-90.12
-79.52
-65.92
-51.91
-40.01
-31.93
-28.17
-28.13
-30.44
-33.66
-36.61
-38.66
-39.63
-39.58
-38.66
-36.98
-34.69
-32.11
-29.69
-27.96
-27.14
-26.97
-26.61
-24.98
-21.22
-15.08
-7.21
1.23
8.96
15.16
19.65
22.84
25.29
27.34
28.92
29.71
29.36
27.90
25.68
23.28
21.08
18.97
16.33
12.17
5.65
-3.60
-15.28
-28.48
-41.84
-53.86
-63.12
-68.40
-68.87
-64.15
-54.47
-40.54
-23.54
-4.84
14.12
32.02
47.77
60.53
69.77
75.24
77.00
75.44
71.28
65.62
59.91
55.69
54.28
56.40
61.85
69.68
78.40
86.48
92.80
96.72
98.12
97.18
94.20
89.56
83.65
76.88
69.63
62.14
54.41
46.31
37.60
28.12
17.81
6.69
-5.13
-17.51
-30.27
-43.18
-56.00
-68.54
-80.56
-91.73
-101.45
-108.94
-113.42
-114.47
-112.44
-108.44
-104.05
-100.62
-98.58
-97.30
-95.35
-91.38
-84.78
-76.09
-66.59
-57.71
-50.32
-44.44
-39.53
-35.02
-30.75
-27.03
-24.34
-22.82
-21.91
-20.45
-17.04
-10.68
-1.33
9.96
21.26
30.44
35.93
37.31
35.40
31.94
28.72
27.02
27.08
28.35
29.85
30.66
30.08
27.64
23.02
16.14
7.48
-1.59
-8.96
-12.24
-9.67
-0.77
13.38
30.54
48.05
63.64
75.86
84.19
88.84
90.42
89.75
87.65
84.85
81.85
78.85
75.83
72.65
69.13
65.22
61.00
56.63
52.34
48.27
44.52
41.14
38.17
35.62
33.51
31.74
30.03
27.97
25.16
21.29
16.34
10.43
3.64
-4.24
-13.88
-26.32
-42.62
-63.35
-88.06
-115.03
-141.41
-163.74
-178.88
-184.79
-181.17
-169.33
-151.78
-131.46
-111.10
-92.88
-78.26
-67.87
-61.35
-57.11
-52.49
-44.36
-30.20
-9.16
17.39
46.11
72.83
93.99
107.72
114.18
115.10
112.74
109.05
105.10
101.05
96.45
90.58
82.71
72.42
59.74
45.36
30.68
17.59
7.89
2.58
1.29
2.15
2.46
-0.49
-8.31
-21.01
-37.04
-53.88
-69.01
-80.52
-87.57
-90.13
-88.67
-83.66
-75.32
-63.70
-48.83
-30.97
-10.74
10.87
32.61
53.11
71.00
84.94
93.83
96.88
93.79
84.83
70.80
52.91
32.52
10.90
-10.88
-31.82
-50.68
-65.95
-76.42
-82.24
-85.72
-91.10
-102.96
-123.87
-152.59
-184.08
-211.75
-230.73
-240.24
-243.51
-245.46
-249.41
-255.10
-258.97
-256.54
-244.80
-223.34
-193.82
-158.68
-120.39
-81.60
-45.87
-17.85
-1.97
-0.34
-10.59
-25.28
-33.50
-24.50
8.56
65.47
138.61
215.25
281.44
326.23
344.48
337.28
310.27
271.20
227.70
186.42
152.60
129.19
115.66
107.24
96.20
75.31
42.25
2.15
-33.75
-53.33
-49.85
-25.46
9.76
43.00
64.69
72.06
68.63
60.57
52.72
46.47
40.89
34.77
28.56
24.64
25.79
33.16
45.05
57.29
64.97
64.84
56.65
43.42
30.03
21.03
18.81
22.86
30.40
38.01
43.24
45.47
45.81
46.21
48.28
52.61
58.65
65.10
70.60
74.28
75.97
76.12
75.48
74.64
73.77
72.61
70.61
67.25
62.33
56.04
48.87
41.39
33.97
26.68
19.31
11.55
3.11
-6.23
-16.59
-28.08
-40.79
-54.77
-69.94
-85.98
-102.33
-118.27
-133.04
-145.93
-156.39
-164.12
-168.95
-170.74
-169.20
-163.84
-154.02
-139.33
-119.94
-97.04
-72.87
-50.46
-33.02
-23.18
-22.27
-29.88
-43.90
-60.98
-77.55
-90.87
-99.83
-105.17
-108.82
-112.85
-118.36
-124.97
-130.87
-133.63
-130.87
-120.94
-103.24
-78.27
-47.59
-13.75
20.07
50.73
75.76
93.93
105.48
111.64
114.09
114.26
112.94
110.26
106.11
100.44
93.75
86.97
81.20
77.20
74.86
73.18
70.69
66.00
58.47
48.37
36.68
24.54
12.83
1.98
-7.78
-16.11
-22.33
-25.47
-24.56
-19.13
-9.41
3.59
18.34
33.18
46.67
57.83
66.19
71.70
74.58
75.19
73.94
71.23
67.43
62.83
57.58
51.73
45.26
38.14
30.37
21.98
12.98
3.30
-7.23
-18.85
-31.70
-45.69
-60.28
-74.39
-86.47
-94.79
-97.81
-94.70
-85.59
-71.61
-54.67
-36.88
-20.09
-5.47
6.51
15.91
23.07
28.33
31.99
34.29
35.51
35.96
35.94
35.65
35.10
34.26
33.09
31.70
30.37
29.39
28.93
28.84
28.65
27.60
24.77
19.25
10.39
-2.10
-17.94
-36.25
-55.53
-74.02
-90.09
-102.61
-111.12
-115.78
-117.07
-115.59
-111.86
-106.27
-99.14
-90.58
-80.57
-68.84
-55.09
-39.28
-21.79
-3.55
14.29
30.62
44.75
56.47
65.81
72.79
77.32
79.30
78.88
76.73
73.99
72.02
71.84
73.78
77.18
80.66
82.57
81.52
76.87
68.90
58.68
47.64
37.12
27.98
20.43
14.15
8.55
3.14
-2.29
-7.68
-12.83
-17.62
-22.04
-26.26
-30.44
-34.63
-38.82
-42.89
-46.65
-49.73
-51.55
-51.39
-48.49
-42.45
-33.35
-21.91
-9.21
3.61
15.59
26.08
34.61
40.80
44.32
44.95
42.84
38.56
33.10
27.61
23.08
20.07
18.66
18.48
18.95
19.57
20.07
20.44
20.84
21.38
21.97
22.26
21.74
19.93
16.66
12.17
7.01
1.85
-2.82
-6.87
-10.56
-14.47
-19.21
-25.26
-32.81
-41.55
-50.68
-58.86
-64.47
-65.86
-61.94
-52.57
-38.68
-22.17
-5.33
9.73
21.58
29.68
34.30
36.16
36.16
35.04
33.34
31.44
29.62
28.24
27.59
27.85
28.89
30.33
31.65
32.42
32.56
32.37
32.46
33.44
35.57
38.66
41.93
44.31
44.78
42.68
38.04
31.49
24.06
16.68
9.79
3.21
-3.84
-12.29
-22.90
-35.91
-50.93
-66.95
-82.41
-95.45
-104.26
-107.52
-104.78
-96.69
-84.77
-70.96
-56.93
-43.71
-31.66
-20.75
-11.00
-2.61
4.04
8.81
11.90
13.88
15.47
17.26
19.45
21.97
24.49
26.73
28.52
29.88
30.85
31.39
31.36
30.52
28.67
25.58
21.28
16.02
10.27
4.51
-0.95
-5.99
-10.72
-15.34
-20.32
-26.06
-32.77
-40.45
-48.94
-57.85
-66.37
-73.23
-76.88
-76.44
-71.54
-62.46
-50.15
-36.25
-22.81
-11.76
-4.51
-1.47
-2.75
-7.29
-13.02
-17.50
-19.06
-17.63
-14.64
-12.64
-14.47
-23.45
-41.38
-67.62
-98.86
-130.32
-157.09
-175.39
-183.79
-177.36
-156.33
-126.07
-95.01
-70.09
-54.18
-46.48
-44.30
-45.22
-47.47
-50.61
-53.91
-56.70
-56.52
-51.54
-41.47
-27.12
-10.16
7.65
24.47
39.44
53.03
66.88
82.92
100.34
118.38
135.77
150.78
160.97
164.13
158.99
145.90
126.61
103.96
81.65
62.99
50.23
44.06
44.07
49.33
58.89
71.58
85.89
100.18
112.49
121.04
124.61
122.90
116.52
106.64
94.44
80.90
67.08
54.15
43.32
35.64
31.45
30.16
30.35
30.19
28.04
22.93
14.64
3.64
-9.01
-21.87
-33.27
-41.72
-46.15
-46.24
-42.35
-35.46
-26.86
-17.87
-9.69
-3.29
0.67
1.96
0.82
-2.16
-6.35
-11.28
-16.83
-23.08
-30.04
-37.49
-44.98
-52.10
-58.66
-64.74
-70.51
-75.90
-80.41
-83.23
-83.50
-80.74
-75.13
-67.47
-58.93
-50.61
-43.23
-36.96
-31.55
-26.56
-21.62
-16.46
-10.85
-4.29
3.99
15.01
29.59
47.96
69.51
92.85
116.19
137.81
156.32
170.77
180.50
184.99
183.82
176.83
164.33
147.17
126.82
105.08
83.85
64.74
48.88
36.66
27.76
21.27
15.92
10.51
4.10
-3.77
-12.92
-22.70
-32.16
-40.40
-46.84
-51.49
-54.79
-57.49
-60.30
-63.46
-66.59
-68.79
-69.05
-66.65
-61.58
-54.61
-47.37
-42.16
-41.28
-46.14
-56.48
-70.00
-82.86
-91.09
-91.93
-85.13
-73.15
-60.09
-49.93
-45.08
-45.71
-50.03
-55.91
-60.94
-63.08
-61.38
-56.05
-48.17
-39.19
-30.73
-24.16
-20.64
-19.99
-20.45
-19.05
-12.85
-0.49
16.64
34.68
50.57
60.75
63.52
59.19
49.42
36.39
22.21
8.76
-2.29
-9.04
-10.19
-4.94
6.68
23.81
44.98
68.40
92.55
113.50
128.91
137.60
140.13
138.22
133.53
126.59
116.30
100.53
77.52
47.69
13.61
-20.58
-50.96
-75.65
-95.49
-113.30
-131.88
-151.97
-171.06
-184.66
-188.55
-181.16
-164.64
-143.94
-124.55
-110.05
-100.99
-94.97
-88.41
-78.08
-61.99
-39.57
-11.27
21.76
57.87
95.01
130.95
163.64
191.53
213.90
230.77
242.64
249.96
252.82
250.75
243.05
229.32
210.19
187.63
164.65
144.29
128.50
117.54
110.17
104.51
99.06
93.26
87.31
81.56
75.85
69.22
60.49
48.78
34.04
17.01
-0.94
-18.41
-34.26
-48.11
-60.67
-73.23
-87.16
-103.40
-121.85
-141.08
-158.49
-170.90
-175.87
-173.19
-164.50
-152.99
-142.34
-135.55
-134.05
-137.55
-144.44
-153.18
-163.94
-177.14
-193.23
-211.87
-231.86
-251.12
-267.20
-277.46
-279.97
-274.22
-259.17
-234.14
-199.89
-159.93
-120.01
-86.62
-64.55
-46.74
-27.13
-0.39
34.37
73.10
109.15
137.91
155.86
167.42
175.83
180.22
177.72
164.64
138.53
100.16
54.22
8.87
-26.29
-44.34
-43.47
-26.07
1.88
37.62
73.43
101.02
116.17
120.98
120.44
118.55
116.80
114.04
107.87
95.71
77.48
55.83
34.82
17.32
4.12
-6.00
-16.00
-25.82
-36.72
-49.15
-62.03
-73.48
-82.83
-90.47
-97.84
-106.24
-118.39
-133.22
-147.50
-157.33
-160.09
-156.13
-146.95
-134.97
-122.29
-108.07
-92.12
-74.08
-53.82
-31.86
-10.33
10.09
29.57
49.21
70.42
94.03
120.29
148.91
179.64
205.07
219.26
218.72
203.89
178.17
145.62
109.76
73.59
44.82
23.46
9.52
2.08
-0.91
-2.41
-5.09
-9.95
-18.88
-30.18
-41.58
-49.21
-50.32
-44.28
-32.82
-19.33
-7.55
-0.45
1.10
-2.80
-9.37
-14.97
-16.23
-11.06
0.88
18.21
38.30
58.28
74.96
86.64
92.83
94.17
91.90
87.48
82.31
77.45
73.92
71.92
71.19
70.77
69.10
64.67
56.77
45.86
33.50
21.68
11.76
4.13
-1.54
-5.76
-8.54
-9.33
-7.39
-2.39
5.39
15.04
25.60
36.43
47.40
58.58
70.03
81.43
92.01
100.94
107.52
111.32
112.29
110.44
105.67
97.71
86.41
72.14
56.12
40.19
26.31
15.72
8.50
3.51
-0.93
-6.37
-13.68
-23.01
-34.17
-46.85
-60.55
-74.28
-86.32
-94.46
-96.73
-92.41
-82.62
-70.13
-58.51
-50.93
-49.51
-54.63
-65.13
-78.47
-91.12
-99.11
-98.89
-88.37
-67.76
-39.59
-7.80
23.74
52.62
78.36
101.87
124.22
145.58
164.86
180.11
189.49
192.25
189.19
182.41
174.25
166.24
158.28
148.75
135.43
116.83
93.16
66.49
39.79
15.45
-5.68
-24.38
-42.14
-59.91
-77.48
-93.83
-108.19
-120.96
-134.03
-149.73
-169.57
-193.34
-219.45
-246.20
-272.93
-299.98
-327.33
-352.95
-372.11
-378.62
-367.53
-337.46
-291.20
-234.13
-171.99
-109.52
-50.91
-0.89
35.07
52.92
53.12
42.08
30.36
27.91
39.15
60.99
85.21
103.50
112.12
113.34
112.95
116.13
124.28
134.73
143.07
145.96
142.68
134.59
123.99
112.83
102.74
95.29
91.84
92.82
96.88
100.89
101.10
95.03
82.73
66.81
51.06
38.87
32.17
31.40
36.23
45.94
59.44
74.85
89.41
100.03
104.37
101.56
92.17
77.66
59.71
39.86
19.55
0.13
-17.45
-32.96
-47.23
-61.76
-78.13
-97.30
-119.40
-144.15
-171.52
-202.35
-237.73
-277.68
-319.60
-357.73
-384.24
-391.86
-376.66
-339.69
-286.38
-224.32
-160.63
-100.38
-46.54
-0.89
35.19
60.78
76.03
82.73
83.93
82.78
81.13
79.04
75.33
68.78
59.15
47.39
35.01
23.25
12.57
2.89
-5.82
-13.05
-17.78
-18.93
-16.02
-9.57
-0.96
7.94
15.25
19.42
19.37
14.62
5.54
-6.58
-19.69
-31.51
-40.34
-45.65
-48.22
-49.53
-51.05
-53.42
-56.23
-58.31
-58.27
-55.11
-48.34
-38.13
-24.83
-8.99
8.74
27.51
45.96
62.31
74.59
81.41
82.62
79.74
75.38
72.21
71.57
72.78
73.43
70.70
62.81
50.13
34.98
20.69
10.04
4.16
2.27
2.31
2.07
0.17
-3.50
-7.89
-11.50
-13.07
-12.08
-9.09
-5.28
-1.99
-0.17
-0.13
-1.67
-4.46
-8.41
-13.69
-20.51
-28.60
-36.91
-43.53
-46.19
-43.13
-33.96
-20.26
-5.50
5.73
9.15
2.31
-13.97
-35.45
-55.40
-66.71
-64.30
-47.04
-18.27
15.26
44.95
62.59
62.25
41.79
3.93
-43.51
-88.94
-119.98
-127.43
-108.70
-68.64
-17.46
33.43
75.65
105.80
124.70
134.96
138.59
136.11
127.38
112.95
94.62
74.85
55.33
36.16
16.04
-6.33
-30.30
-52.30
-66.27
-65.84
-46.91
-10.22
38.02
87.85
128.95
154.46
163.15
159.09
149.02
138.93
131.59
126.20
120.04
110.77
98.03
83.46
69.46
57.60
47.90
39.00
29.34
18.28
6.50
-4.51
-13.46
-20.07
-25.43
-31.51
-40.13
-52.00
-66.18
-80.34
-91.54
-97.40
-97.00
-91.21
-82.39
-73.39
-66.60
-63.00
-62.05
-61.99
-60.76
-56.83
-49.84
-40.66
-30.98
-22.73
-17.53
-16.30
-19.16
-25.46
-33.91
-42.82
-50.49
-55.40
-56.43
-53.07
-45.40
-34.21
-20.79
-6.73
6.46
17.66
26.38
32.67
36.91
39.56
41.00
41.41
40.93
39.63
37.66
35.26
32.66
30.11
27.77
25.67
23.73
21.81
19.79
17.74
15.87
14.49
13.76
13.64
13.78
13.54
12.25
9.27
4.20
-3.15
-12.67
-23.95
-36.25
-48.58
-59.77
-68.64
-74.16
-75.50
-72.22
-64.37
-52.70
-38.70
-24.51
-12.47
-4.39
-1.03
-1.74
-4.87
-8.42
-10.94
-12.05
-12.46
-13.64
-17.09
-23.52
-32.21
-40.62
-44.71
-39.88
-22.69
7.51
47.65
91.68
132.26
163.18
181.03
185.62
179.23
165.38
147.74
129.60
113.73
102.05
95.35
92.81
92.04
89.75
82.62
68.44
46.72
18.84
-12.47
-43.71
-71.56
-93.69
-109.16
-118.49
-122.95
-123.79
-121.43
-115.25
-103.84
-85.89
-61.11
-30.77
2.14
33.49
59.00
75.47
81.66
78.61
69.09
56.62
44.33
34.23
27.16
22.98
20.83
18.97
14.77
5.24
-11.66
-35.49
-62.68
-87.31
-103.43
-107.66
-100.58
-86.16
-69.48
-54.38
-42.28
-32.84
-25.57
-21.12
-21.04
-26.26
-35.54
-45.31
-51.03
-49.82
-42.38
-33.09
-28.41
-34.12
-52.97
-83.67
-121.47
-159.37
-189.76
-205.74
-202.75
-180.04
-141.61
-95.71
-52.35
-19.61
-0.32
8.71
14.19
21.99
33.39
44.50
48.96
42.41
25.29
2.56
-19.81
-38.63
-54.96
-72.49
-93.41
-115.34
-131.07
-131.51
-110.28
-67.32
-9.43
52.16
105.90
143.69
162.73
165.39
157.33
145.09
133.99
127.05
124.85
126.33
129.82
133.95
137.92
141.12
142.82
141.89
137.12
127.73
113.78
96.34
77.11
57.72
39.15
21.43
3.84
-14.52
-34.05
-54.13
-73.15
-88.84
-99.16
-102.91
-100.19
-92.32
-81.29
-69.12
-57.31
-46.67
-37.43
-29.54
-22.90
-17.47
-13.19
-9.88
-7.20
-4.67
-1.82
1.72
6.07
11.12
16.50
21.70
26.22
29.59
31.53
31.93
30.88
28.57
25.25
21.19
16.67
11.88
6.89
1.67
-3.98
-10.36
-17.65
-25.81
-34.32
-42.19
-47.99
-50.24
-47.79
-40.20
-27.98
-12.45
4.54
21.07
35.53
46.85
54.48
58.35
58.75
56.22
51.52
45.61
39.46
33.93
29.56
26.52
24.63
23.43
22.36
20.96
18.89
16.01
12.38
8.22
3.77
-0.73
-5.11
-9.29
-13.27
-17.16
-21.15
-25.51
-30.55
-36.50
-43.27
-50.19
-56.06
-59.31
-58.43
-52.50
-41.55
-26.59
-9.32
8.33
24.67
38.52
49.25
56.67
60.86
62.15
61.05
58.23
54.47
50.54
47.07
44.44
42.75
41.89
41.57
41.40
40.90
39.64
37.24
33.56
28.75
23.26
17.65
12.43
7.79
3.56
-0.76
-5.85
-12.28
-20.44
-30.26
-41.10
-51.62
-59.87
-63.83
-62.22
-55.20
-44.70
-33.89
-26.10
-23.63
-27.00
-35.00
-45.24
-55.05
-62.03
-64.43
-61.16
-51.86
-37.04
-18.08
2.98
23.82
42.38
57.28
67.92
74.33
77.01
76.71
74.28
70.60
66.45
62.37
58.69
55.45
52.65
50.27
48.38
46.97
45.91
44.81
43.14
40.37
36.18
30.65
24.21
17.50
11.07
5.25
-0.02
-5.11
-10.56
-16.91
-24.50
-33.29
-42.75
-51.82
-59.00
-62.68
-61.47
-54.71
-42.72
-26.70
-8.53
9.83
26.73
41.09
52.38
60.42
65.27
67.15
66.44
63.80
60.07
56.07
52.49
49.64
47.49
45.78
44.14
42.31
40.13
37.55
34.55
31.09
27.14
22.63
17.58
12.06
6.24
0.37
-5.30
-10.65
-15.64
-20.46
-25.45
-30.99
-37.43
-44.80
-52.72
-60.26
-66.03
-68.42
-66.11
-58.41
-45.57
-28.74
-9.67
9.72
27.61
42.48
53.18
58.98
59.65
55.74
48.70
40.77
34.56
32.34
35.37
43.44
54.88
67.01
76.91
82.23
81.81
75.85
65.64
53.03
39.93
27.88
17.83
10.04
4.13
-0.66
-5.26
-10.43
-16.41
-22.79
-28.67
-32.96
-34.86
