1660323594.00
64.000000
-0.00
-0.00
-0.00
-0.00
-0.00
-0.00
-0.00
-0.00
-0.00
-0.00
0.00
0.01
0.01
-0.00
-0.03
-0.05
-0.05
0.00
0.13
0.36
0.66
1.01
1.37
1.72
2.06
2.40
2.79
3.24
3.80
4.42
5.06
5.66
6.20
6.68
7.15
7.68
8.31
9.14
10.09
11.04
11.88
12.56
13.14
13.76
14.65
15.96
17.91
20.32
22.90
25.38
27.58
29.57
31.68
34.32
37.81
42.54
48.15
54.10
59.83
64.97
69.58
74.14
79.34
85.71
93.76
103.00
112.62
121.73
129.77
136.75
143.30
150.75
157.77
166.64
177.95
191.79
206.97
220.57
228.25
225.36
208.53
176.87
132.76
80.05
23.07
-34.94
-92.44
-149.16
-205.23
-260.37
-313.74
-363.87
-409.82
-450.88
-486.45
-515.67
-537.13
-549.08
-549.79
-538.15
-513.94
-478.35
-433.50
-382.01
-326.52
-269.27
-212.00
-155.95
-102.17
-51.52
-4.97
36.60
72.54
102.57
126.83
145.83
160.28
170.89
178.28
182.84
184.88
184.61
182.31
178.32
173.07
166.94
160.31
153.40
146.36
139.28
132.17
125.10
118.12
111.31
104.73
98.44
92.47
86.84
81.55
76.63
72.07
67.88
64.07
60.65
57.63
55.00
52.76
50.89
49.37
48.16
47.17
46.31
45.44
44.42
43.07
41.24
38.79
35.63
31.74
27.16
21.94
16.24
10.27
4.26
-1.56
-6.94
-11.72
-15.73
-18.89
-21.16
-22.55
-23.12
-22.97
-22.20
-20.92
-19.23
-17.23
-14.99
-12.58
-10.02
-7.38
-4.69
-2.00
0.70
3.40
6.11
8.83
11.60
14.48
17.42
20.42
23.48
26.61
29.82
33.13
36.59
40.23
44.12
48.17
52.36
56.64
61.03
65.54
70.22
75.09
80.23
85.75
91.49
97.33
103.23
109.13
114.99
120.78
126.49
132.13
137.73
142.99
147.67
151.56
154.43
156.03
156.01
153.90
148.98
142.72
135.66
128.15
120.40
112.55
104.68
96.84
89.08
81.49
74.21
67.06
60.00
53.08
46.39
40.05
34.22
29.07
24.76
21.43
18.95
17.18
15.98
15.21
14.72
14.40
14.12
13.80
13.41
12.78
11.81
10.52
8.97
7.26
5.52
3.86
2.35
0.98
-0.35
-1.78
-3.40
-5.25
-7.33
-9.58
-11.96
-14.47
-17.13
-20.05
-23.31
-26.91
-30.76
-34.66
-38.35
-41.69
-44.65
-47.43
-50.34
-53.71
-57.67
-62.13
-66.73
-71.01
-74.65
-77.66
-80.47
-83.73
-88.12
-93.97
-101.08
-108.74
-116.06
-122.37
-127.63
-132.55
-138.31
-146.14
-156.73
-169.89
-184.71
-199.89
-214.41
-227.95
-241.10
-255.18
-271.94
-293.24
-320.50
-353.99
-392.01
-430.47
-463.46
-484.78
-490.13
-478.79
-453.91
-421.33
-387.16
-355.64
-328.10
-303.31
-278.92
-252.96
-224.68
-194.58
-163.99
-134.35
-106.60
-80.83
-56.36
-32.10
-7.23
18.40
44.22
69.08
91.45
109.40
120.45
121.71
110.48
85.12
46.07
-3.72
-59.07
-113.63
-161.16
-196.72
-217.49
-223.06
-215.24
-197.46
-173.69
-147.19
-119.59
-90.66
-58.78
-21.88
21.63
71.92
127.32
184.22
237.59
282.05
313.22
328.98
329.79
318.24
297.82
271.85
243.02
213.45
185.08
159.73
138.69
122.06
108.54
95.76
81.21
63.36
42.27
19.56
-2.16
-20.34
-33.39
-41.25
-45.43
-48.58
-53.82
-63.85
-80.23
-102.90
-130.11
-158.82
-185.36
-206.24
-219.04
-222.84
-218.37
-207.57
-192.74
-175.30
-154.89
-129.19
-95.11
-50.85
2.16
58.31
109.15
145.90
162.87
159.68
141.54
117.66
98.51
93.55
109.06
146.66
202.42
266.73
325.59
363.67
368.71
335.86
270.01
184.69
97.88
26.19
-19.93
-38.32
-33.67
-14.01
13.14
43.21
74.90
108.95
146.31
186.66
228.07
267.48
301.79
328.52
346.29
354.71
354.27
346.03
331.11
310.62
285.68
257.50
227.42
196.87
166.98
138.29
110.55
83.01
54.91
26.09
-2.63
-29.61
-52.85
-70.94
-83.59
-91.73
-97.09
-101.40
-105.76
-110.32
-114.62
-118.00
-120.03
-120.66
-119.98
-118.06
-114.81
-110.00
-103.55
-95.56
-86.36
-76.28
-65.51
-54.00
-41.60
-28.34
-14.61
-1.14
11.12
21.33
28.95
33.92
36.57
37.47
37.28
36.50
35.49
34.45
33.54
32.88
32.57
32.59
32.80
32.85
32.35
31.02
28.79
25.94
22.99
20.61
19.37
19.61
21.32
24.15
27.47
30.50
32.39
32.36
29.83
24.56
16.82
7.39
-2.47
-11.37
-18.21
-22.53
-24.82
-26.23
-28.16
-31.51
-36.29
-41.37
-44.95
-45.18
-40.95
-32.34
-20.52
-7.36
5.19
15.61
23.23
28.26
31.73
35.63
42.45
54.52
72.98
96.55
121.05
140.27
148.34
142.54
125.14
102.71
83.25
72.30
70.35
72.94
73.30
65.93
48.94
23.98
-5.82
-38.05
-71.99
-107.52
-143.56
-177.04
-203.73
-220.16
-225.27
-220.41
-207.81
-188.78
-163.33
-131.05
-93.40
-55.18
-24.08
-8.18
-12.64
-37.32
-76.40
-120.43
-159.29
-185.23
-194.57
-187.74
-168.11
-140.20
-108.13
-74.67
-41.30
-8.87
21.55
48.27
69.27
83.23
90.19
91.87
90.98
90.05
90.43
91.98
93.63
94.52
95.04
97.18
103.92
117.88
139.84
167.75
196.86
220.95
234.12
232.64
215.98
186.84
150.31
112.42
78.82
53.57
38.51
32.84
33.25
34.76
32.09
21.51
2.09
-24.05
-52.79
-79.85
-102.52
-120.40
-134.79
-147.19
-158.08
-166.72
-172.20
-174.76
-176.44
-180.04
-187.03
-195.64
-200.60
-195.33
-175.21
-140.60
-97.52
-55.59
-24.50
-10.80
-16.42
-39.17
-73.84
-113.36
-149.36
-172.96
-176.00
-153.05
-103.52
-32.68
48.92
127.80
190.95
229.00
238.22
220.79
183.14
133.22
77.43
19.07
-41.01
-102.09
-160.77
-209.77
-239.41
-241.40
-212.85
-158.38
-89.12
-18.91
40.38
82.17
106.18
116.66
119.55
119.84
120.14
120.60
119.82
115.86
107.20
93.10
73.78
50.33
24.51
-0.71
-21.01
-30.84
-24.67
0.42
41.87
90.04
129.89
146.33
131.08
87.56
30.43
-20.55
-49.40
-50.91
-31.74
-5.38
15.89
27.14
31.95
38.52
54.06
80.95
116.87
157.70
200.67
244.94
289.72
331.49
363.11
376.02
364.33
328.83
277.68
223.44
177.80
146.49
127.33
112.18
91.40
58.69
13.81
-37.77
-87.62
-128.01
-154.55
-166.98
-168.23
-162.54
-153.64
-144.03
-134.93
-127.09
-121.25
-118.13
-118.04
-120.46
-124.04
-127.24
-129.15
-130.07
-131.37
-134.63
-140.60
-148.30
-155.02
-157.13
-151.35
-136.13
-112.33
-82.99
-52.37
-24.61
-2.73
11.93
19.57
21.46
19.40
15.39
11.25
8.52
8.12
10.22
14.15
18.58
21.99
23.14
21.44
17.11
10.92
3.88
-3.18
-9.71
-15.49
-20.44
-24.41
-27.12
-28.25
-27.64
-25.44
-22.14
-18.42
-15.05
-12.65
-11.73
-12.62
-15.38
-19.77
-25.12
-30.44
-34.64
-36.96
-37.30
-36.35
-35.32
-35.44
-37.46
-41.31
-46.24
-51.11
-54.89
-56.84
-56.71
-54.55
-50.65
-45.42
-39.37
-33.16
-27.44
-22.79
-19.51
-17.65
-17.10
-17.83
-19.95
-23.73
-29.33
-36.63
-45.15
-54.22
-63.29
-72.12
-80.75
-89.40
-98.18
-107.08
-115.93
-124.40
-131.93
-137.63
-140.24
-138.55
-131.98
-121.20
-108.26
-95.96
-86.96
-82.81
-83.54
-88.01
-94.33
-100.08
-102.35
-98.10
-85.09
-62.98
-34.07
-2.89
25.34
46.64
59.37
64.09
62.20
54.68
41.76
23.73
2.17
-19.59
-37.30
-47.63
-49.83
-46.03
-40.19
-36.10
-35.71
-38.59
-42.40
-44.21
-41.85
-34.68
-23.42
-9.56
5.61
21.50
38.41
57.19
78.76
103.51
130.94
159.62
187.26
211.06
228.03
235.57
231.97
217.12
193.05
163.80
134.56
110.11
93.24
83.96
80.07
78.65
77.71
76.85
76.57
76.63
74.91
67.86
52.45
28.39
-0.84
-29.25
-50.90
-62.65
-64.97
-61.00
-54.40
-47.80
-42.36
-38.22
-35.07
-31.82
-26.18
-14.57
6.31
37.28
74.90
111.70
138.75
149.33
141.62
118.99
88.20
55.97
26.81
2.36
-17.58
-33.46
-44.84
-50.39
-48.63
-39.31
-24.65
-9.56
-0.58
-3.58
-21.03
-50.20
-83.67
-111.98
-127.56
-127.88
-116.17
-99.23
-83.79
-73.28
-67.03
-61.92
-55.18
-46.50
-38.29
-33.92
-35.45
-42.27
-51.15
-57.98
-59.74
-55.76
-47.91
-39.34
-32.92
-29.97
-29.92
-30.89
-30.83
-28.47
-23.84
-18.05
-12.64
-8.91
-7.48
-8.34
-11.15
-15.57
-21.38
-28.33
-35.78
-42.55
-47.13
-48.04
-44.41
-36.30
-24.61
-10.70
3.99
18.36
31.63
43.37
53.22
60.97
66.47
69.80
71.32
71.52
71.02
70.23
69.47
68.86
68.50
68.52
69.13
70.46
72.44
74.74
76.74
77.87
77.81
76.57
74.31
71.01
66.25
59.18
48.78
34.44
16.31
-4.53
-26.20
-46.57
-63.70
-76.27
-83.71
-86.06
-83.79
-77.59
-68.27
-56.61
-43.46
-29.57
-15.64
-2.21
10.20
21.00
29.54
35.21
37.85
37.90
36.44
34.85
34.16
34.66
35.79
36.52
35.95
33.73
30.19
26.01
21.95
18.47
15.73
13.67
12.09
10.67
8.98
6.50
2.74
-2.54
-9.20
-16.75
-24.40
-31.40
-37.21
-41.59
-44.73
-47.07
-49.19
-51.64
-54.80
-58.73
-63.08
-67.12
-69.99
-70.87
-69.39
-65.81
-60.92
-55.70
-50.91
-46.71
-42.74
-38.35
-32.99
-26.52
-19.21
-11.65
-4.43
1.95
7.23
11.38
14.59
17.27
19.94
23.13
27.05
31.54
36.02
39.65
41.68
41.78
40.09
37.19
33.89
30.97
28.91
27.80
27.33
26.99
26.32
25.12
23.43
21.42
19.19
16.55
13.10
8.40
2.22
-5.46
-14.48
-24.60
-35.40
-45.83
-54.09
-57.69
-54.41
-43.40
-26.09
-6.19
11.50
22.81
25.65
20.57
10.22
-1.86
-12.46
-19.43
-21.85
-19.88
-14.52
-7.34
-0.34
4.34
4.92
0.45
-8.57
-19.83
-29.41
-32.85
-26.84
-10.98
11.35
33.85
49.60
53.92
46.25
30.15
11.40
-4.73
-15.45
-20.82
-22.69
-22.86
-22.02
-19.69
-15.04
-7.96
0.46
8.23
13.39
14.75
12.27
6.86
-0.30
-8.33
-16.98
-26.45
-36.98
-48.29
-59.37
-68.70
-74.74
-76.55
-74.12
-68.49
-61.27
-54.14
-48.26
-44.00
-40.92
-38.10
-34.47
-29.15
-21.71
-12.22
-1.21
10.42
21.63
31.46
39.15
44.39
47.24
48.14
47.72
46.59
45.26
44.06
43.11
42.46
42.06
41.77
41.37
40.60
39.22
37.08
34.17
30.58
26.49
21.99
17.14
11.86
6.11
-0.05
-6.43
-12.67
-18.34
-23.06
-26.70
-29.45
-31.81
-34.48
-38.10
-43.00
-49.09
-55.89
-62.64
-68.56
-72.99
-75.45
-75.69
-73.56
-69.08
-62.39
-53.77
-43.60
-32.34
-20.39
-8.15
4.06
15.86
26.88
36.70
45.06
51.85
57.24
61.55
65.08
67.98
70.18
71.49
71.81
71.24
70.08
68.77
67.57
66.51
65.35
63.84
61.83
59.46
57.00
54.73
52.76
50.97
49.15
47.14
44.93
42.56
39.96
36.90
32.93
27.67
20.98
13.17
4.80
-3.47
-11.26
-18.51
-25.46
-32.36
-39.27
-45.92
-51.85
-56.56
-59.72
-61.29
-61.45
-60.45
-58.45
-55.48
-51.45
-46.25
-39.90
-32.54
-24.37
-15.58
-6.29
3.46
13.51
23.49
32.86
40.96
47.26
51.55
53.95
54.90
54.90
54.41
53.77
53.20
52.86
52.81
52.97
53.12
52.95
52.12
50.49
48.09
45.16
41.99
38.83
35.80
32.98
30.43
28.24
26.50
25.20
24.21
23.18
21.71
19.40
15.98
11.40
5.82
-0.48
-7.16
-13.97
-20.77
-27.54
-34.25
-40.72
-46.63
-51.49
-54.85
-56.44
-56.28
-54.65
-51.93
-48.41
-44.19
-39.18
-33.28
-26.47
-18.92
-10.90
-2.74
5.29
12.97
20.08
26.36
31.50
35.26
37.57
38.60
38.71
38.37
37.96
37.70
37.55
37.38
36.98
36.21
35.05
33.53
31.76
29.83
27.80
25.69
23.51
21.25
18.90
16.48
13.95
11.32
8.57
5.71
2.79
-0.18
-3.14
-6.10
-9.06
-12.05
-15.10
-18.30
-21.70
-25.37
-29.31
-33.47
-37.70
-41.77
-45.39
-48.26
-50.12
-50.79
-50.18
-48.24
-44.94
-40.31
-34.46
-27.59
-19.98
-11.93
-3.75
4.33
12.09
19.28
25.58
30.67
34.25
36.22
36.75
36.21
35.06
33.75
32.54
31.46
30.40
29.20
27.71
25.91
23.81
21.44
18.86
16.15
13.44
10.98
9.09
8.05
7.92
8.46
9.19
9.55
9.14
7.89
6.11
4.26
2.80
1.95
1.59
1.45
1.19
0.59
-0.37
-1.63
-3.21
-5.22
-7.95
-11.63
-16.33
-21.76
-27.37
-32.47
-36.44
-38.99
-40.12
-39.98
-38.75
-36.49
-33.15
-28.70
-23.24
-17.07
-10.51
-3.92
2.47
8.46
13.90
18.59
22.41
25.35
27.56
29.34
30.97
32.62
34.27
35.76
36.94
37.74
38.22
38.50
38.69
38.80
38.75
38.44
37.84
36.98
35.98
34.93
33.87
32.74
31.40
29.65
27.34
24.40
20.81
16.61
11.83
6.50
0.71
-5.37
-11.44
-17.20
-22.40
-26.98
-31.04
-34.82
-38.59
-42.52
-46.59
-50.64
-54.33
-57.33
-59.29
-60.00
-59.40
-57.60
-54.85
-51.43
-47.60
-43.42
-38.82
-33.60
-27.62
-20.81
-13.28
-5.31
2.71
10.33
17.16
22.88
27.33
30.53
32.64
33.93
34.70
35.17
35.40
35.35
34.89
33.95
32.60
31.06
29.56
28.28
27.24
26.28
25.17
23.78
22.03
20.08
18.00
15.87
13.69
11.37
8.91
6.37
3.87
1.49
-0.76
-2.96
-5.21
-7.56
-9.98
-12.40
-14.76
-17.03
-19.27
-21.50
-23.76
-26.12
-28.66
-31.43
-34.46
-37.56
-40.39
-42.47
-43.44
-43.20
-42.06
-40.79
-40.35
-41.57
-44.80
-49.82
-55.85
-61.91
-67.20
-71.46
-75.11
-79.03
-84.06
-90.70
-98.79
-107.65
-116.63
-125.36
-133.95
-142.80
-152.05
-161.34
-170.12
-178.46
-187.59
-199.35
-214.78
-232.75
-249.87
-262.17
-267.54
-267.28
-265.27
-265.37
-268.60
-272.07
-270.66
-260.12
-239.54
-211.50
-179.92
-147.48
-114.71
-81.13
-47.58
-17.48
4.03
12.59
6.98
-10.12
-33.34
-57.11
-77.57
-93.16
-103.84
-109.82
-110.75
-105.78
-94.29
-76.71
-54.71
-30.73
-7.15
14.49
33.81
51.45
68.58
86.41
105.82
127.27
150.83
176.03
201.80
226.56
248.59
266.67
280.88
292.75
304.79
319.41
337.67
358.72
380.06
398.60
411.94
419.27
421.53
420.77
419.21
418.11
417.16
414.31
406.27
389.60
362.09
323.84
277.65
228.38
181.39
140.88
108.78
84.52
65.82
49.95
34.79
19.37
4.20
-8.75
-16.02
-13.26
3.12
33.89
75.15
118.10
151.16
163.58
149.27
108.98
49.90
-16.79
-79.15
-127.27
-154.93
-160.06
-144.58
-113.55
-74.04
-33.58
1.49
27.23
42.58
49.01
49.64
48.33
48.65
53.11
62.51
75.68
89.75
100.94
105.82
102.28
90.02
70.47
46.20
20.21
-4.83
-27.23
-46.68
-64.18
-81.32
-99.78
-121.03
-146.17
-175.86
-209.95
-247.25
-285.71
-322.91
-356.90
-386.59
-411.57
-431.27
-444.35
-448.65
-442.09
-423.87
-395.30
-359.61
-320.87
-282.72
-247.67
-217.02
-191.34
-170.84
-155.67
-146.00
-142.11
-144.17
-151.40
-161.21
-168.85
-167.96
-152.02
-116.22
-59.22
15.93
101.90
188.05
262.24
313.29
333.89
322.98
286.79
237.48
189.68
155.99
143.25
151.22
173.65
201.08
223.77
234.07
227.69
204.47
168.68
128.60
95.11
79.41
90.45
132.25
202.35
291.85
387.19
473.44
538.04
573.97
581.11
565.48
536.55
503.66
473.22
447.65
426.16
406.69
387.69
368.70
349.82
330.92
311.16
289.33
264.59
237.01
207.61
177.94
149.34
122.36
96.68
71.43
45.71
19.02
-8.60
-36.66
-64.31
-90.59
-114.44
-134.70
-150.37
-160.89
-166.38
-167.77
-166.53
-164.16
-161.84
-160.21
-159.44
-159.51
-160.37
-161.86
-163.69
-165.28
-165.95
-165.12
-162.64
-158.88
-154.66
-150.99
-148.85
-148.97
-151.76
-157.30
-165.28
-174.99
-185.34
-195.05
-202.79
-207.40
-208.04
-204.13
-195.35
-181.74
-163.66
-141.87
-117.53
-91.94
-66.36
-41.98
-20.14
-2.69
7.92
9.13
-0.63
-20.62
-47.07
-73.67
-93.30
-100.60
-93.84
-75.53
-51.31
-27.64
-9.74
-0.26
0.76
-4.74
-13.62
-22.37
-27.59
-26.62
-18.24
-3.02
16.62
37.13
55.04
67.90
74.88
76.39
73.48
67.22
58.39
47.80
36.37
25.33
15.98
9.34
6.09
6.60
11.26
20.40
33.95
50.79
68.16
82.00
87.81
82.13
63.56
33.13
-6.10
-49.88
-93.43
-132.01
-161.43
-178.76
-183.11
-176.14
-161.69
-144.66
-129.25
-117.62
-109.37
-102.28
-93.60
-81.45
-65.60
-47.44
-29.32
-13.68
-2.22
4.40
6.54
5.21
1.65
-2.95
-7.47
-10.84
-12.07
-10.39
-5.63
1.59
9.91
17.63
23.36
26.47
27.24
26.42
24.66
22.07
18.24
12.63
5.12
-3.62
-12.23
-19.05
-22.75
-22.73
-19.18
-12.98
-5.21
3.13
11.40
19.24
26.44
32.68
37.40
39.89
39.64
36.78
32.23
27.62
24.69
24.67
27.58
32.13
36.02
36.61
31.58
19.45
-0.06
-26.07
-56.41
-87.94
-117.02
-140.25
-155.35
-161.82
-161.15
-156.32
-151.00
-148.61
-151.41
-159.97
-172.89
-186.88
-197.32
-199.45
-189.78
-167.45
-134.70
-96.20
-57.56
-23.65
2.66
20.66
31.22
35.97
36.68
35.24
33.79
34.67
40.00
50.83
66.51
84.63
101.76
114.60
121.30
121.91
118.05
111.92
105.15
98.10
90.00
79.72
66.66
51.42
35.71
21.76
11.55
6.10
5.32
8.15
13.01
18.24
22.41
24.45
23.78
20.36
14.66
7.64
0.59
-5.18
-8.65
-9.42
-7.84
-4.83
-1.57
1.02
2.61
3.53
4.43
5.93
8.18
10.87
13.44
15.65
17.82
20.79
25.34
31.56
38.27
43.13
43.29
36.40
21.68
0.22
-25.27
-51.38
-74.90
-93.52
-105.89
-111.28
-109.31
-99.86
-83.57
-62.21
-38.80
-17.00
-0.03
10.42
14.68
14.88
13.82
13.88
16.13
20.23
24.82
28.28
29.44
27.90
24.10
19.03
13.91
9.83
7.47
7.08
8.40
10.99
14.22
17.58
20.56
22.79
23.99
24.04
23.13
21.61
19.96
18.51
17.29
16.05
14.34
11.79
8.33
4.32
0.46
-2.34
-3.32
-2.03
1.41
6.36
11.78
16.53
19.76
21.12
20.87
19.70
18.44
17.72
17.77
18.45
19.38
20.22
20.74
20.84
20.58
20.06
19.40
18.73
18.06
17.28
16.05
13.81
9.95
4.01
-4.10
-14.11
-25.38
-37.10
-48.47
-58.74
-67.31
-73.65
-77.30
-78.03
-75.91
-71.39
-65.31
-58.73
-52.71
-48.05
-45.07
-43.59
-42.95
-42.25
-40.55
-37.25
-32.23
-25.99
-19.46
-13.71
-9.52
-7.14
-6.35
-6.61
-7.47
-8.65
-10.04
-11.55
-12.92
-13.81
-13.93
-13.18
-11.58
-9.26
-6.16
-2.16
2.80
8.52
14.34
19.29
22.40
23.02
20.93
16.48
10.55
4.30
-0.86
-3.66
-3.32
0.15
5.86
12.27
17.75
21.04
21.63
19.76
16.12
11.49
6.50
1.58
-2.97
-6.91
-9.96
-11.94
-12.81
-12.73
-12.01
-11.07
-10.34
-10.21
-11.00
-12.86
-15.80
-19.60
-23.80
-27.72
-30.63
-31.91
-31.22
-28.69
-24.85
-20.60
-16.89
-14.42
-13.35
-13.18
-13.01
-11.91
-9.48
-6.00
-2.38
0.44
1.93
2.24
2.05
2.02
2.44
2.99
2.97
1.77
-0.76
-4.20
-7.90
-11.35
-14.45
-17.43
-20.48
-23.40
-25.48
-25.79
-23.60
-18.84
-12.18
-4.83
1.88
6.88
9.48
9.39
6.52
0.99
-6.88
-16.37
-26.37
-35.42
-42.03
-45.17
-44.65
-41.43
-37.45
-35.16
-36.67
-43.15
-54.38
-68.89
-84.55
-99.11
-110.74
-118.12
-120.52
-117.88
-110.94
-101.36
-91.49
-83.79
-80.13
-81.30
-87.05
-96.45
-108.29
-121.12
-132.98
-141.23
-142.82
-135.15
-116.98
-89.09
-54.17
-16.09
21.14
54.32
81.63
102.78
118.86
131.84
143.85
156.38
169.68
182.66
193.39
199.91
200.99
196.39
186.64
172.74
155.78
136.93
117.51
98.91
82.45
69.11
59.24
52.52
48.08
44.78
41.48
37.33
31.93
25.39
18.33
11.63
6.02
1.94
-0.76
-2.63
-4.39
-6.70
-9.98
-14.38
-19.87
-26.23
-33.02
-39.61
-45.24
-49.19
-51.01
-50.59
-48.11
-43.85
-38.11
-31.24
-23.71
-16.22
-9.63
-4.65
-1.53
0.11
1.12
2.45
4.64
7.52
10.22
11.59
10.65
6.97
0.85
-7.01
-15.89
-25.47
-36.04
-48.34
-63.15
-80.76
-100.55
-121.07
-140.25
-156.19
-167.75
-174.83
-178.34
-179.92
-181.69
-185.76
-193.70
-205.48
-218.77
-228.85
-229.72
-216.24
-186.09
-140.69
-84.47
-22.71
40.58
103.76
167.28
232.49
300.43
370.97
442.18
510.01
568.47
610.90
632.15
630.80
610.03
576.37
536.88
496.45
456.77
417.41
378.08
340.03
305.77
277.20
253.78
232.24
208.23
178.72
143.74
106.13
69.77
37.40
9.14
-17.49
-46.43
-81.37
-123.85
-172.33
-222.18
-266.72
-299.21
-315.07
-313.50
-297.67
-273.56
-247.69
-225.10
-207.91
-195.63
-186.25
-177.86
-169.89
-163.62
-161.80
-167.46
-182.27
-205.08
-231.41
-254.40
-267.09
-265.10
-248.10
-219.65
-185.09
-149.08
-113.80
-78.71
-41.71
-0.66
45.52
96.31
149.63
201.96
248.56
284.25
304.41
306.28
289.69
256.92
212.10
160.34
107.19
58.18
18.35
-8.86
-22.62
-25.28
-21.80
-18.07
-18.62
-25.10
-36.04
-47.98
-57.31
-61.95
-61.96
-59.11
-55.85
-54.04
-54.31
-56.02
-57.71
-57.97
-55.99
-51.97
-46.86
-42.00
-38.51
-36.91
-37.03
-38.18
-39.55
-40.50
-40.89
-40.99
-41.29
-42.25
-44.11
-46.85
-50.26
-54.03
-57.84
-61.42
-64.56
-67.21
-69.50
-71.75
-74.24
-76.89
-79.06
-79.36
-76.00
-67.27
-52.30
-31.49
-6.58
19.79
44.79
66.15
82.61
94.09
101.33
105.44
107.43
107.89
106.90
104.16
99.25
91.88
82.10
70.31
57.23
43.78
30.92
19.45
10.01
2.94
-1.73
-4.35
-5.65
-6.74
-8.84
-12.99
-19.60
-28.19
-37.50
-45.82
-51.61
-54.00
-53.04
-49.57
-44.85
-40.25
-36.94
-35.78
-37.36
-41.85
-49.01
-58.23
-68.53
-78.72
-87.55
-93.68
-95.71
-92.44
-83.25
-68.45
-49.62
-29.27
-10.27
5.02
15.27
20.51
21.88
21.21
20.55
21.59
25.34
31.78
39.86
47.80
53.64
55.97
54.30
49.06
41.20
31.76
21.63
11.61
2.49
-4.82
-9.50
-11.00
-9.23
-4.51
2.61
11.50
21.42
31.43
40.41
47.07
50.36
49.85
45.85
39.34
31.71
24.35
18.38
14.36
12.09
10.54
8.08
2.83
-6.65
-20.90
-39.32
-60.27
-81.40
-100.11
-114.00
-121.16
-120.63
-112.60
-98.48
-80.69
-61.93
-44.27
-28.67
-14.89
-2.08
10.32
22.21
32.58
40.13
43.82
43.47
39.83
34.45
29.26
26.05
26.09
29.96
37.47
47.76
59.51
71.17
81.18
88.31
91.84
91.72
88.54
83.25
76.81
69.85
62.60
54.96
46.81
38.16
29.08
19.60
9.43
-1.89
-14.57
-28.23
-41.67
-53.14
-60.93
-64.03
-62.50
-57.50
-50.79
-44.04
-38.40
-34.20
-31.20
-28.91
-26.91
-24.94
-22.85
-20.49
-17.63
-14.07
-9.75
-4.89
0.12
4.96
9.62
14.45
19.89
26.21
33.08
39.60
44.51
46.62
45.30
40.63
33.38
24.70
15.83
7.92
1.91
-1.56
-2.12
-0.06
3.56
6.93
7.84
4.41
-4.27
-17.64
-33.65
-49.23
-61.08
-66.60
-64.53
-55.59
-42.27
-28.27
-17.46
-12.62
-14.48
-21.68
-31.28
-39.95
-45.24
-46.38
-44.28
-40.86
-38.12
-37.19
-37.85
-38.76
-37.92
-33.47
-24.20
-9.82
8.99
30.67
52.91
72.97
88.05
96.05
96.28
89.78
79.09
67.35
57.26
50.25
46.34
44.58
43.83
43.25
42.47
41.41
40.11
38.66
37.40
36.97
38.09
41.19
45.88
50.85
54.27
54.49
50.84
43.82
34.91
25.81
17.86
11.60
6.82
2.77
-1.52
-6.91
-13.93
-22.59
-32.41
-42.58
-52.26
-60.99
-68.73
-75.74
-82.16
-87.74
-91.73
-93.49
-92.75
-90.06
-86.48
-83.18
-80.77
-79.18
-77.79
-75.85
-72.96
-69.08
-64.54
-59.67
-54.49
-48.70
-41.74
-33.03
-22.33
-9.93
3.23
15.66
25.54
31.06
30.83
24.17
11.26
-6.86
-28.66
-52.49
-77.31
-102.90
-129.68
-157.72
-185.63
-209.90
-225.63
-228.16
-215.23
-188.25
-151.87
-112.07
-73.69
-38.88
-6.93
24.38
57.33
93.40
133.24
176.86
223.38
270.39
313.40
346.51
364.19
363.45
345.18
313.80
275.30
234.90
195.72
158.93
125.15
95.66
72.63
58.02
52.09
52.64
55.60
56.68
53.22
45.11
34.57
24.73
18.17
15.78
16.79
19.36
21.55
22.05
20.48
17.09
12.38
6.91
1.31
-3.51
-6.49
-6.72
-4.09
0.39
4.83
7.09
5.81
0.93
-6.39
-14.47
-21.92
-28.18
-33.44
-38.06
-41.98
-44.49
-44.59
-41.67
-36.14
-29.66
-24.73
-23.90
-28.73
-39.30
-54.05
-70.36
-85.40
-97.14
-104.78
-108.83
-110.80
-112.72
-116.74
-124.66
-137.47
-154.75
-174.25
-192.09
-203.64
-204.80
-193.00
-167.64
-129.77
-81.30
-24.58
37.47
100.67
158.91
204.41
228.94
226.44
195.69
141.91
76.42
14.32
-29.33
-43.71
-25.55
19.46
77.93
132.26
165.78
167.82
137.27
83.10
21.55
-29.41
-56.13
-53.53
-26.00
15.43
57.74
90.57
108.66
111.66
102.69
86.27
67.15
49.92
38.72
36.74
44.82
60.45
77.84
89.55
89.05
73.28
44.01
7.11
-29.62
-59.31
-78.15
-86.05
-85.76
-81.15
-75.41
-70.23
-65.66
-60.93
-55.27
-48.41
-40.67
-32.73
-25.29
-18.90
-13.96
-10.85
-9.85
-11.10
-14.33
-18.79
-23.39
-27.09
-29.34
-30.36
-30.95
-32.15
-34.68
-38.70
-43.71
-48.85
-53.28
-56.63
-59.14
-61.73
-65.61
-71.79
-80.51
-91.12
-102.16
-111.95
-119.25
-123.65
-125.54
-125.72
-124.85
-123.13
-120.22
-115.56
-108.78
-99.89
-89.42
-78.17
-66.93
-56.14
-45.72
-35.28
-24.32
-12.61
-0.36
11.88
23.34
33.33
41.40
47.46
51.97
55.74
59.64
64.22
69.28
73.73
76.01
74.77
69.47
60.75
50.17
39.67
30.94
25.17
22.98
24.60
29.86
38.15
48.22
58.33
66.60
71.57
72.65
70.17
65.25
59.11
52.73
46.53
40.48
34.36
28.12
21.88
15.88
10.29
4.89
-0.71
-7.05
-14.52
-23.23
-33.12
-44.11
-56.10
-68.83
-81.64
-93.34
-102.52
-108.07
-109.65
-107.86
-103.85
-98.67
-92.68
-85.44
-76.08
-63.93
-48.96
-31.91
-14.08
3.19
18.86
32.44
44.12
54.63
64.99
76.16
88.44
101.14
112.64
120.85
123.90
120.97
112.70
101.05
88.74
78.39
71.71
68.93
68.94
69.73
69.38
66.92
62.72
58.33
55.85
57.19
63.40
74.33
88.45
103.06
114.85
120.76
119.10
110.09
95.64
78.21
59.48
39.38
16.62
-9.91
-39.36
-68.32
-91.62
-104.48
-104.64
-93.27
-74.19
-51.86
-29.36
-7.54
14.62
38.52
64.51
91.20
115.83
135.26
147.26
151.10
147.53
138.07
124.28
107.23
87.52
65.60
42.24
18.73
-3.19
-21.72
-35.46
-43.73
-46.71
-45.34
-41.09
-35.77
-31.33
-29.77
-32.87
-41.87
-57.25
-78.24
-102.91
-128.29
-150.96
-167.67
-175.95
-174.52
-163.41
-144.11
-119.34
-92.80
-68.54
-50.29
-40.54
-40.02
-47.57
-60.54
-75.54
-89.34
-99.47
-104.50
-104.12
-98.89
-89.91
-78.51
-65.97
-53.29
-41.10
-29.72
-19.19
-9.49
-0.49
8.02
16.43
25.24
34.97
45.89
57.76
69.72
80.39
88.34
92.58
93.00
90.37
85.95
81.02
76.32
71.98
67.65
62.91
57.49
51.43
44.88
38.04
31.06
24.18
17.76
12.29
8.19
5.69
4.74
5.11
6.60
9.07
12.40
16.13
19.30
20.51
18.37
12.10
2.07
-10.21
-22.48
-32.57
-39.23
-42.66
-44.46
-46.92
-52.06
-60.63
-71.76
-83.40
-93.24
-99.90
-103.52
-105.48
-107.48
-110.68
-115.25
-120.71
-126.51
-132.07
-136.31
-137.07
-131.17
-115.63
-89.43
-54.68
-16.37
19.72
49.58
72.53
91.02
108.52
127.17
146.44
163.57
175.23
179.39
176.12
167.09
154.44
139.66
123.16
104.70
84.18
62.26
40.63
21.73
8.15
2.10
5.02
17.32
38.19
65.47
95.70
124.41
146.93
159.52
160.58
151.39
136.05
120.26
109.49
106.71
111.22
118.64
122.47
116.34
96.19
61.77
16.86
-31.71
-75.99
-109.34
-128.41
-134.12
-130.99
-125.09
-121.58
-122.80
-127.89
-133.95
-137.88
-137.82
-133.54
-125.77
-115.23
-102.20
-86.87
-69.92
-52.97
-38.19
-27.50
-21.78
-20.32
-21.15
-21.74
-20.03
-15.20
-7.96
-0.22
5.70
8.12
6.68
2.43
-2.77
-7.21
-10.07
-11.64
-12.95
-15.05
-18.29
-22.31
-26.29
-29.68
-32.71
-36.56
-42.81
-52.65
-66.12
-81.86
-97.44
-110.30
-118.82
-123.07
-124.74
-126.56
-131.20
-140.15
-153.21
-168.39
-182.45
-191.78
-193.73
-187.94
-177.19
-167.02
-164.07
-173.45
-196.37
-229.27
-264.88
-294.88
-312.65
-314.99
-302.24
-277.23
-243.95
-206.48
-168.34
-131.92
-98.21
-67.04
-38.23
-12.74
6.68
16.61
15.14
3.95
-11.38
-23.37
-26.05
-17.76
-1.65
16.35
30.81
39.10
41.89
41.52
40.06
37.90
34.08
27.33
17.32
5.02
-7.63
-18.58
-26.50
-31.13
-33.16
-33.73
-33.92
-34.40
-35.17
-35.71
-35.17
-32.57
-27.08
-18.00
-4.66
13.87
38.53
69.75
106.44
145.33
180.96
206.85
217.46
210.24
186.69
152.08
113.67
78.44
51.27
34.25
27.10
28.34
36.07
48.17
61.75
72.87
76.99
70.50
52.56
26.12
-2.59
-26.40
-40.02
-41.88
-34.06
-20.43
-3.95
15.01
38.88
71.49
116.34
175.23
247.50
329.81
416.16
498.28
566.62
612.31
629.18
615.48
574.55
513.98
443.66
373.37
310.81
260.76
225.30
204.54
197.02
199.97
208.86
217.78
220.62
212.75
192.58
161.90
124.92
86.26
48.90
12.96
-23.92
-64.98
-112.11
-164.10
-216.16
-260.99
-291.26
-302.40
-294.71
-273.29
-246.02
-220.12
-199.28
-182.78
-166.93
-147.87
-124.07
-97.05
-70.34
-47.69
-31.60
-22.56
-19.32
-19.55
-20.60
-20.19
-16.82
-10.05
-0.61
9.97
19.98
28.12
33.88
37.50
39.63
40.80
41.12
40.17
37.19
31.43
22.38
9.93
-5.67
-23.86
-43.92
-65.09
-86.47
-106.93
-125.08
-139.44
-148.81
-152.73
-151.70
-146.98
-140.13
-132.24
-123.60
-113.67
-101.53
-86.58
-69.09
-50.31
-32.11
-16.31
-4.01
4.84
11.34
17.21
24.16
33.30
44.82
58.07
71.78
84.47
94.79
101.77
105.13
105.26
103.18
100.16
97.38
95.45
94.31
93.27
91.39
87.94
82.74
76.15
68.99
62.13
56.20
51.43
47.62
44.25
40.79
36.87
32.47
27.95
23.81
20.30
17.18
13.56
8.22
0.15
-10.89
-24.02
-37.37
-48.61
-55.70
-57.56
-54.44
-48.08
-41.31
-37.39
-39.17
-48.00
-62.86
-79.98
-93.53
-97.62
-88.58
-66.75
-36.43
-4.01
24.63
46.18
60.28
68.41
72.36
73.15
71.28
67.55
63.63
61.77
63.70
69.52
77.45
84.67
88.70
88.42
84.33
78.14
72.07
68.02
67.11
69.27
73.27
76.90
77.67
73.50
63.47
47.99
28.50
6.93
-15.09
-36.64
-57.57
-78.30
-99.26
-120.49
-141.34
-160.54
-176.51
-187.95
-194.31
-196.16
-195.02
-192.72
-190.68
-189.41
-188.24
-185.74
-180.10
-169.11
-150.16
-120.49
-78.24
-24.02
37.97
100.35
154.84
195.35
220.17
231.99
235.60
235.05
231.94
226.09
218.07
211.16
211.11
223.53
250.04
285.92
320.85
342.58
341.82
315.80
268.94
210.85
152.47
102.60
65.88
42.64
29.90
22.82
15.85
3.58
-18.54
-53.21
-100.60
-158.00
-220.51
-282.24
-338.00
-384.60
-421.31
-449.41
-471.21
-488.90
-503.33
-513.56
-517.21
-511.21
-493.15
-462.17
-419.48
-367.91
-311.14
-252.82
-196.12
-143.70
-97.68
-59.53
-29.72
-7.51
8.90
21.64
32.13
40.40
45.15
44.62
37.78
25.42
10.40
-2.86
-9.24
-3.83
17.20
55.75
110.80
177.90
249.49
316.57
371.17
408.61
428.49
433.78
428.54
415.59
395.26
365.84
325.32
273.20
211.54
144.86
78.83
18.67
-32.24
-73.05
-105.24
-131.74
-155.46
-178.08
-199.24
-216.90
-228.25
-231.06
-224.64
-209.91
-188.60
-162.07
-131.01
-96.22
-60.29
-28.27
-6.43
0.72
-6.27
-20.78
-32.56
-32.75
-18.57
5.36
30.19
48.31
58.05
64.30
75.06
95.98
126.62
160.58
188.89
204.71
206.12
196.19
180.77
165.39
153.12
144.10
136.51
128.10
117.39
104.11
88.89
72.59
55.73
38.35
20.35
2.07
-15.47
-30.71
-42.22
-49.41
-53.11
-55.39
-58.81
-65.35
-75.68
-89.04
-103.75
-117.99
-130.35
-139.81
-145.34
-145.41
-137.96
-121.04
-93.79
-57.16
-14.14
30.98
73.66
110.24
138.42
157.31
167.05
168.48
162.92
152.18
138.45
124.16
111.44
101.63
95.04
90.86
87.53
83.29
76.71
67.02
54.24
38.84
21.51
2.84
-16.78
-36.98
-57.20
-76.47
-93.47
-106.76
-115.15
-118.13
-115.98
-109.71
-100.78
-90.60
-80.19
-69.98
-59.89
-49.54
-38.62
-27.03
-14.98
-2.94
8.52
18.68
26.72
31.67
32.56
28.80
20.60
9.34
-2.55
-12.10
-16.73
-15.09
-7.51
4.20
17.51
30.12
40.56
48.34
53.52
56.21
56.23
53.24
47.18
38.60
28.72
19.14
11.20
5.60
2.22
0.34
-0.87
-1.98
-3.18
-4.36
-5.28
-5.87
-6.28
-6.79
-7.72
-9.21
-11.17
-13.29
-15.26
-16.96
-18.55
-20.37
-22.57
-24.89
-26.62
-26.93
-25.23
-21.57
-16.59
-11.23
-6.19
-1.75
2.29
6.34
10.68
15.38
20.32
25.41
30.56
35.56
39.95
42.86
43.28
40.43
34.18
25.29
15.25
5.85
-1.32
-5.35
-6.09
-4.11
-0.45
3.79
7.72
10.93
13.52
16.02
19.10
23.27
28.61
34.73
40.93
46.61
51.80
57.56
66.20
80.83
104.47
138.63
182.08
230.26
276.11
312.05
332.60
336.31
326.26
308.60
290.05
275.41
266.10
260.41
254.65
244.55
226.20
196.46
153.81
99.67
39.65
-16.64
-58.11
-76.67
-71.44
-50.15
-26.68
-15.49
-25.92
-59.03
-108.41
-163.85
-215.69
-257.55
-286.59
-302.41
-305.62
-297.46
-280.04
-256.65
-231.49
-208.74
-191.48
-180.82
-176.01
-174.92
-175.11
-174.75
-173.17
-170.92
-169.23
-169.28
-171.61
-176.09
-182.14
-189.26
-197.38
-206.87
-218.16
-231.30
-245.69
-260.05
-272.93
-283.48
-292.08
-300.49
-311.27
-326.54
-346.53
-368.61
-387.26
-395.26
-385.67
-354.10
-300.48
-229.53
-149.85
-71.57
-3.78
48.00
82.94
104.11
116.44
124.36
130.26
134.05
133.80
126.94
111.40
86.34
52.48
11.96
-32.11
-76.41
-118.08
-155.36
-187.44
-214.25
-235.87
-252.25
-263.30
-269.08
-269.47
-263.84
-251.06
-230.38
-203.06
-173.38
-147.94
-132.94
-131.21
-140.36
-153.46
-162.10
-159.80
-144.03
-115.76
-77.49
-31.76
18.59
68.94
112.27
140.14
146.86
132.99
106.60
80.69
67.78
74.89
101.15
139.58
181.21
219.88
254.54
288.12
324.33
364.28
404.84
439.66
462.38
468.79
459.57
439.58
415.51
392.70
373.22
356.13
339.26
322.35
305.15
288.81
272.61
252.37
221.80
175.91
115.01
46.52
-14.96
-57.51
-71.22
-52.92
-6.10
60.94
137.61
212.82
276.22
322.15
341.90
333.67
300.03
247.50
185.27
123.34
70.89
34.60
21.56
27.40
48.28
78.89
114.84
154.61
199.82
253.08
291.07
338.02
381.25
411.07
420.62
408.64
379.61
341.26
300.96
262.85
231.10
200.04
168.02
135.06
102.78
73.06
46.59
22.28
-1.95
-24.95
-49.78
-74.90
-97.31
-114.23
-124.19
-127.68
-127.03
-125.59
-124.59
-127.31
-132.97
-138.66
-140.67
-136.21
-124.88
-109.37
-94.92
-86.91
-91.38
-110.50
-142.13
-179.79
-214.11
-235.09
-234.62
-208.33
-156.18
-83.33
1.67
88.04
164.66
222.20
255.18
262.95
249.60
222.19
188.34
153.86
121.86
93.02
66.88
43.03
21.31
1.49
-17.31
-36.54
-57.73
-81.72
-108.35
-136.50
-164.11
-188.71
-207.82
-219.49
-223.05
-219.62
-212.09
-204.29
-199.64
-199.83
-204.16
-209.99
-214.08
-214.17
-209.94
-202.89
-195.39
-189.38
-185.43
-182.64
-179.17
-173.05
-162.93
-148.36
-129.64
-107.56
-83.29
-58.51
-35.55
-17.24
-6.37
-4.80
-12.78
-28.62
-49.12
-70.44
-89.07
-102.61
-109.95
-111.06
-106.65
-98.04
-87.38
-77.76
-73.14
-77.25
-92.20
-116.94
-146.73
-174.07
-190.84
-191.19
-173.54
-141.41
-102.19
-64.86
-37.34
-24.25
-25.79
-37.66
-52.19
-60.20
-53.52
-27.42
17.58
75.51
136.45
189.40
225.52
240.25
233.73
209.31
171.39
123.74
69.20
10.70
-47.41
-98.83
-136.16
-152.74
-144.84
-113.11
-62.80
-2.77
56.21
103.73
131.83
136.72
119.58
86.17
45.24
6.26
-22.80
-37.00
-34.89
-18.28
8.57
39.79
69.05
90.62
100.44
96.95
81.12
56.01
25.79
-5.31
-33.75
-57.17
-74.48
-85.85
-92.41
-95.87
-97.95
-99.86
-102.07
-104.60
-107.42
-110.98
-116.35
-124.90
-137.60
-154.13
-172.32
-188.23
-196.81
-193.24
-174.43
-140.25
-93.91
-41.20
11.09
57.02
92.83
117.40
131.67
137.70
137.84
134.26
128.88
123.26
118.56
115.10
112.41
109.40
105.05
99.17
92.67
87.18
84.01
83.09
82.38
78.17
66.23
43.52
9.51
-33.15
-79.11
-121.80
-155.23
-175.74
-182.72
-178.36
-166.49
-151.08
-135.14
-120.37
-107.58
-97.24
-89.82
-85.52
-83.81
-83.03
-80.87
-75.21
-65.23
-51.75
-36.85
-22.76
-10.81
-1.02
7.48
15.46
22.77
28.12
29.72
26.28
17.78
5.78
-7.18
-18.54
-26.63
-31.24
-33.44
-35.17
-38.53
-45.20
-56.04
-70.94
-88.80
-107.98
-126.85
-144.46
-160.93
-177.36
-195.15
-215.10
-236.75
-258.35
-277.46
-292.09
-301.58
-306.96
-310.81
-316.61
-328.01
-347.78
-376.65
-412.24
-448.80
-478.19
-492.31
-485.71
-457.37
-410.64
-351.07
-283.86
-211.97
-136.18
-56.63
25.24
106.03
181.56
248.83
307.61
360.14
409.27
456.39
500.22
537.32
563.74
577.03
577.05
565.64
545.86
521.11
495.22
472.72
458.51
456.22
465.56
480.88
492.42
490.39
470.23
436.11
400.19
377.40
378.46
404.21
444.97
484.90
509.11
509.67
487.64
450.55
407.48
364.74
324.04
284.06
243.21
201.83
162.52
128.74
102.53
82.94
66.50
48.81
26.87
0.35
-28.44
-55.65
-77.93
-93.87
-104.47
-112.54
-121.38
-133.39
-149.23
-167.94
-187.79
-207.39
-226.29
-244.82
-263.21
-280.79
-295.67
-305.36
-307.85
-302.63
-290.99
-275.49
-258.84
-242.98
-228.72
-216.11
-205.08
-195.83
-188.84
-184.39
-182.09
-180.77
-178.84
-174.82
-167.98
-158.37
-146.66
-133.63
-119.81
-105.43
-90.67
-75.93
-61.96
-49.79
-40.39
-34.49
-32.40
-33.98
-38.71
-45.62
-53.33
-60.30
-65.13
-67.05
-66.21
-63.63
-60.74
-58.83
-58.65
-60.26
-63.28
-67.15
-71.35
-75.38
-78.55
-79.78
-77.63
-70.46
-56.91
-36.44
-9.71
21.40
54.16
85.67
113.48
136.05
152.69
163.37
168.37
168.27
163.80
155.86
145.22
132.35
117.12
99.09
78.01
54.52
30.37
8.14
-9.53
-20.89
-25.59
-24.62
-19.82
-13.16
-6.28
-0.21
4.57
8.07
10.55
12.34
13.50
13.65
11.93
7.33
-0.80
-12.28
-25.88
-39.65
-51.61
-60.30
-65.12
-65.88
-62.35
-53.78
-39.36
-18.97
5.74
31.13
52.35
64.86
66.26
57.23
41.33
23.55
8.50
-1.14
-5.15
-5.18
-3.71
-2.82
-3.60
-6.08
-9.74
-14.05
-18.69
-23.53
-28.30
-32.33
-34.71
-34.78
-32.55
-29.02
-25.80
-24.48
-25.77
-29.20
-33.32
-36.40
-37.29
-35.99
-33.53
-31.50
-31.36
-33.79
-38.58
-44.87
-51.43
-56.98
-60.39
-60.77
-57.60
-50.98
-41.85
-31.82
-22.79
-16.18
-12.41
-10.77
-9.65
-7.30
-2.43
5.40
15.66
27.12
38.14
47.05
52.55
54.03
51.67
46.40
39.44
31.89
24.41
17.20
10.29
3.73
-2.27
-7.53
-12.00
-15.86
-19.31
-22.40
-24.85
-26.17
-25.96
-24.29
-21.76
-19.28
-17.70
-17.28
-17.55
-17.44
-15.82
-12.11
-6.59
-0.47
4.57
7.03
6.20
2.28
-3.80
-10.88
-18.09
-25.07
-31.96
-39.29
-47.75
-57.95
-70.13
-83.92
-98.15
-111.09
-120.79
-125.78
-125.44
-120.29
-111.84
-102.19
-93.32
-86.41
-81.45
-77.24
-72.01
-64.20
-53.30
-40.06
-26.15
-13.32
-2.66
5.66
12.14
17.25
21.04
22.93
22.09
17.90
10.27
-0.28
-12.76
-25.86
-38.11
-48.13
-54.77
-57.46
-56.36
-52.47
-47.35
-42.81
-40.24
-40.42
-43.33
-48.38
-54.64
-60.92
-65.75
-67.37
-63.83
-53.44
-35.24
-9.21
23.87
62.68
105.63
150.63
194.90
234.84
266.51
286.45
292.58
284.77
264.77
235.79
201.77
166.76
134.19
106.37
84.13
66.83
52.93
40.85
29.92
20.86
15.56
16.28
24.79
41.54
65.22
92.80
119.93
141.77
154.08
154.28
142.10
119.55
90.31
58.74
29.02
4.53
-12.43
-20.75
-20.70
-14.00
-3.78
6.02
11.53
10.15
1.22
-13.85
-32.28
-50.96
-67.28
-79.74
-87.77
-91.54
-91.57
-88.68
-83.95
-78.65
-73.87
-70.15
-67.24
-64.13
-59.52
-52.44
-42.59
-30.46
-16.99
-3.18
10.11
22.33
33.08
42.02
48.77
52.79
53.52
50.79
45.48
39.92
37.71
42.51
56.38
78.12
103.05
124.26
135.07
131.46
113.54
85.19
52.35
20.76
-5.73
-25.75
-40.17
-50.97
-60.31
-69.73
-80.04
-91.34
-103.35
-115.46
-126.51
-134.64
-137.36
-132.45
-119.10
-99.14
-77.02
-58.68
-49.40
-51.77
-64.73
-84.05
-103.91
-118.86
-125.30
-122.11
-110.48
-93.22
-73.91
-56.05
-42.53
-35.24
-35.20
-42.57
-56.87
-77.04
-101.34
-127.49
-153.06
-175.93
-194.61
-208.25
-216.39
-218.73
-215.25
-206.59
-194.47
-181.52
-170.48
-163.05
-158.98
-156.07
-151.13
-141.39
-125.49
-103.80
-77.90
-49.89
-21.84
4.23
26.46
43.42
54.83
62.03
68.09
76.77
91.14
112.26
138.85
167.96
196.19
220.59
238.86
248.99
248.91
237.11
213.92
182.70
149.98
123.75
110.66
113.03
127.63
146.63
160.53
161.67
146.75
117.50
79.50
40.22
7.07
-13.70
-17.79
-3.71
26.06
64.37
100.60
123.71
126.61
109.45
79.77
49.27
28.45
22.23
28.59
41.18
53.57
62.82
70.33
79.96
95.18
117.08
144.32
174.42
205.09
234.69
261.78
284.47
300.28
306.82
302.63
288.01
265.10
237.36
208.60
182.33
161.05
145.72
135.49
127.48
116.89
97.67
64.35
14.14
-50.82
-122.78
-189.87
-239.58
-262.65
-255.65
-221.41
-167.35
-102.94
-37.46
21.02
66.26
94.19
103.30
95.13
73.67
43.93
9.93
-26.33
-64.45
-103.69
-141.21
-172.01
-190.41
-192.74
-179.34
-154.84
-126.22
-100.17
-80.75
-68.38
-60.87
-55.06
-48.43
-39.83
-29.46
-18.27
-7.42
2.04
9.29
13.73
15.00
12.69
6.56
-3.16
-15.24
-27.18
-35.79
-38.56
-35.26
-28.59
-23.36
-24.40
-34.07
-51.18
-71.42
-89.40
-100.90
-104.28
-100.51
-92.15
-82.17
-72.99
-66.19
-62.62
-62.46
-65.32
-70.27
-76.03
-81.36
-85.49
-88.38
-90.63
-93.14
-96.67
-101.50
-107.37
-113.71
-120.04
-126.32
-133.09
-141.35
-152.09
-165.86
-182.45
-200.95
-220.10
-238.92
-257.11
-275.19
-294.28
-315.51
-339.55
-366.19
-394.16
-421.09
-443.70
-458.22
-460.97
-449.39
-422.65
-381.87
-329.37
-267.67
-198.17
-120.64
-33.93
62.39
165.95
270.45
366.41
443.53
493.63
512.87
502.30
466.81
413.38
349.29
281.42
216.03
158.77
114.14
84.67
70.09
67.25
71.17
76.72
80.52
82.10
84.10
91.28
108.33
137.43
176.37
218.37
254.02
274.28
273.75
252.35
215.09
170.33
127.25
93.77
75.09
72.93
85.50
107.83
133.09
154.26
165.93
165.53
153.25
130.78
99.81
61.27
16.40
-31.87
-77.40
-111.41
-124.69
-110.90
-69.70
-8.32
59.22
115.51
144.59
137.15
93.48
23.33
-57.82
-134.10
-194.11
-233.02
-251.45
-252.81
-241.51
-222.71
-203.02
-190.62
-192.91
-213.04
-247.45
-285.95
-315.28
-324.35
-308.57
-271.81
-224.80
-181.64
-154.95
-151.81
-171.42
-205.42
-240.77
-264.41
-267.85
-249.67
-214.78
-171.08
-125.67
-82.59
-42.99
-6.67
26.29
54.95
78.18
95.78
108.99
120.03
130.89
142.19
152.77
160.37
162.60
158.21
147.56
132.42
115.12
97.50
80.32
63.28
45.70
27.33
8.89
-7.83
-20.49
-27.11
-26.76
-19.74
-7.38
8.64
26.94
46.76
68.13
91.66
118.36
149.11
183.89
221.10
257.34
287.93
308.36
316.01
311.28
297.46
279.33
261.39
246.29
234.54
225.17
216.89
208.98
201.35
194.13
187.17
179.84
171.35
161.12
149.07
135.55
121.15
106.23
90.88
74.92
58.27
41.26
24.81
10.25
-1.06
-8.37
-11.97
-13.22
-14.20
-17.03
-23.11
-32.56
-44.14
-55.60
-64.39
-68.38
-66.37
-58.22
-44.63
-26.74
-5.86
16.68
39.49
61.17
80.39
95.97
106.96
112.46
111.69
104.08
89.80
70.22
48.13
27.25
11.10
1.97
0.11
3.99
11.15
19.28
26.92
33.49
38.80
42.65
44.62
44.28
41.56
36.85
30.93
24.59
18.38
12.47
6.84
1.45
-3.60
-8.14
-12.00
-15.11
-17.49
-19.18
-20.14
-20.35
-19.86
-18.88
-17.78
-17.02
-16.99
-17.93
-19.87
-22.73
-26.32
-30.34
-34.40
-38.04
-40.84
-42.45
-42.66
-41.40
-38.78
-35.11
-31.05
-27.55
-25.56
-25.69
-27.78
-30.79
-33.13
-33.33
-30.68
-25.48
-18.78
-11.82
-5.47
-0.00
4.68
8.72
12.13
14.79
16.61
17.72
18.46
19.22
20.20
21.34
22.36
22.83
22.33
20.61
17.56
13.30
8.19
2.76
-2.32
-6.41
-9.11
-10.30
-10.25
-9.43
-8.41
-7.69
-7.54
-8.01
-8.96
-10.19
-11.53
-12.94
-14.45
-16.17
-18.17
-20.44
-22.79
-24.96
-26.64
-27.51
-27.41
-26.32
-24.39
-21.87
-19.08
-16.37
-14.11
-12.65
-12.28
-13.12
-15.07
-17.64
-20.07
-21.49
-21.22
-19.03
-15.14
-10.17
-4.88
0.13
4.48
7.96
10.48
12.03
12.64
12.49
11.90
11.23
10.76
10.53
10.39
10.12
9.59
8.79
7.86
6.95
6.22
5.77
5.74
6.28
7.51
9.51
12.21
15.39
18.70
21.70
23.89
24.78
24.00
21.35
16.95
11.20
4.73
-1.88
-8.13
-13.73
-18.48
-22.24
-24.92
-26.48
-27.03
-26.86
-26.38
-26.03
-26.17
-26.99
-28.48
-30.40
-32.34
-33.75
-34.09
-32.95
-30.13
-25.58
-19.41
-11.76
-2.97
6.39
15.49
23.40
29.43
33.30
35.21
35.62
35.05
33.87
32.24
30.23
27.85
25.16
22.21
19.01
15.57
11.94
8.17
4.38
0.64
-3.02
-6.56
-9.88
-12.75
-14.95
-16.34
-16.97
-17.06
-16.93
-16.86
-17.10
-17.78
-18.94
-20.49
-22.14
-23.44
-23.84
-22.99
-20.83
-17.72
-14.29
-11.20
-8.94
-7.69
-7.46
-8.28
-10.26
-13.55
-18.15
-23.78
-29.80
-35.44
-39.99
-43.03
-44.42
-44.16
-42.25
-38.63
-33.25
-26.21
-17.91
-8.99
-0.24
7.57
13.88
18.50
21.62
23.73
25.40
27.01
28.51
29.43
29.13
27.10
23.23
17.91
11.79
5.46
-0.82
-7.11
-13.65
-20.57
-27.75
-34.83
-41.34
-46.88
-51.14
-54.00
-55.43
-55.55
-54.64
-53.16
-51.67
-50.70
-50.60
-51.43
-52.93
-54.52
-55.48
-55.07
-52.78
-48.48
-42.47
-35.45
-28.29
-21.84
-16.74
-13.34
-11.72
-11.64
-12.59
-13.81
-14.38
-13.44
-10.46
-5.43
1.06
8.08
14.67
20.16
24.38
27.49
29.79
31.51
32.68
33.27
33.27
32.86
32.34
32.00
31.97
32.23
32.72
33.41
34.42
35.89
37.78
39.69
40.94
40.84
38.92
35.27
30.40
25.04
19.86
15.21
11.16
7.75
5.08
3.39
2.83
3.31
4.31
5.05
4.80
3.16
0.17
-3.79
-8.29
-13.04
-17.99
-23.13
-28.30
-33.12
-37.01
-39.49
-40.36
-39.83
-38.40
-36.61
-34.82
-33.12
-31.32
-29.10
-26.14
-22.20
-17.11
-10.79
-3.21
5.53
15.22
25.40
35.48
44.86
53.02
59.67
64.75
68.32
70.46
71.24
70.79
69.32
67.15
64.60
61.85
58.85
55.36
51.14
46.20
40.88
35.83
31.67
28.76
27.00
25.92
24.88
23.36
21.04
17.86
13.89
9.27
4.15
-1.25
-6.63
-11.65
-15.99
-19.40
-21.71
-22.77
-22.40
-20.32
-16.24
-10.00
-1.75
7.91
17.90
26.85
33.37
36.41
35.59
31.28
24.48
16.53
8.62
1.52
-4.43
-9.29
-13.29
-16.57
-19.26
-21.41
-23.06
-24.19
-24.68
-24.31
-22.86
-20.28
-16.83
-13.06
-9.61
-6.98
-5.29
-4.29
-3.50
-2.48
-1.03
0.80
2.75
4.51
5.82
6.40
5.87
3.76
-0.47
-7.25
-16.62
-28.15
-40.88
-53.62
-65.15
-74.59
-81.41
-85.53
-87.08
-86.30
-83.44
-78.78
-72.65
-65.42
-57.50
-49.21
-40.75
-32.23
-23.67
-15.26
-7.25
0.03
6.33
11.48
15.48
18.37
20.17
20.90
20.65
19.60
18.10
16.60
15.55
15.26
15.81
17.04
18.62
20.05
20.88
20.75
19.57
17.54
15.06
12.65
10.70
9.35
8.57
8.14
7.87
7.60
7.26
6.72
5.79
4.29
2.04
-1.00
-4.75
-9.01
-13.50
-17.93
-22.05
-25.67
-28.70
-31.11
-32.87
-33.84
-33.83
-32.62
-30.04
-26.17
-21.30
-15.86
-10.28
-4.83
0.40
5.46
10.34
14.98
19.20
22.78
25.56
27.44
28.42
28.65
28.33
27.72
27.06
26.47
25.96
25.48
24.97
24.46
24.03
23.71
23.37
22.65
21.15
18.66
15.28
11.48
7.88
5.04
3.24
2.46
2.45
2.80
3.09
2.94
2.03
0.14
-2.70
-6.35
-10.50
-14.83
-19.18
-23.52
-27.89
-32.40
-37.07
-41.80
-46.27
-49.88
-51.87
-51.51
-48.39
-42.70
-35.30
-27.40
-20.20
-14.36
-9.82
-5.90
-1.71
3.37
9.44
16.09
22.62
28.40
33.07
36.56
38.97
40.41
40.84
40.18
38.42
35.72
32.59
29.61
27.31
25.83
24.92
23.93
22.19
19.28
15.25
10.65
6.26
2.80
0.67
-0.16
-0.11
0.24
0.31
-0.39
-2.19
-5.30
-9.81
-15.67
-22.65
-30.34
-38.27
-45.99
-53.23
-59.84
-65.66
-70.47
-73.80
-75.14
-74.10
-70.70
-65.45
-59.26
-53.18
-48.03
-44.18
-41.42
-39.14
-36.60
-33.23
-28.80
-23.46
-17.54
-11.34
-5.00
1.57
8.53
15.96
23.79
31.72
39.46
46.75
53.41
59.22
63.87
66.86
67.65
65.82
61.30
54.43
45.92
36.68
27.67
19.70
13.34
8.85
6.26
5.30
5.55
6.45
7.41
7.73
6.63
3.17
-3.49
-13.85
-27.63
-43.62
-59.68
-73.26
-82.03
-84.53
-80.54
-71.07
-57.95
-43.32
-29.17
-17.03
-7.81
-1.75
1.58
3.20
4.54
7.07
11.89
19.29
28.71
38.86
48.19
55.39
59.70
61.01
59.74
56.64
52.53
48.25
44.45
41.48
39.26
37.27
34.79
31.21
26.36
20.65
14.94
10.15
6.87
5.05
3.99
2.61
-0.19
-5.10
-12.18
-20.82
-29.99
-38.64
-45.99
-51.82
-56.42
-60.48
-64.71
-69.66
-75.40
-81.50
-87.03
-90.73
-91.44
-88.37
-81.56
-71.88
-60.82
-50.01
-40.64
-33.16
-27.20
-21.83
-15.96
-8.71
0.45
11.55
24.19
37.47
50.13
60.74
68.00
71.09
69.95
65.21
58.05
49.85
41.82
34.84
29.35
25.37
22.61
20.57
18.73
16.72
14.38
11.84
9.39
7.36
5.91
4.93
4.12
3.12
1.70
-0.13
-2.12
-3.98
-5.54
-6.91
-8.42
-10.42
-13.12
-16.37
-19.69
-22.42
-23.85
-23.40
-20.85
-16.31
-10.30
-3.61
2.88
8.41
12.46
14.88
15.77
15.49
14.56
13.66
13.48
14.57
17.14
20.80
24.71
27.71
28.88
27.78
24.74
20.62
16.51
13.23
11.14
10.05
9.48
8.90
8.00
6.74
5.34
4.13
3.45
3.53
4.50
6.32
8.74
11.35
13.59
14.90
14.73
12.71
8.68
2.74
-4.80
-13.43
-22.43
-30.99
-38.24
-43.38
-45.93
-45.92
-44.08
-41.77
-40.72
-42.43
-47.72
-56.26
-66.56
-76.42
-83.45
-85.74
-82.28
-73.19
-59.66
-43.70
-27.70
-13.84
-3.55
2.89
6.27
8.02
9.52
11.54
13.99
16.22
17.51
17.50
16.39
14.68
12.83
11.04
9.19
7.07
4.58
1.91
-0.58
-2.42
-3.26
-2.95
-1.48
1.07
4.55
8.83
13.74
19.11
24.77
30.49
35.95
40.62
43.84
44.90
43.30
38.97
32.36
24.36
15.91
7.71
0.08
-7.02
-13.72
-20.10
-26.18
-32.00
-37.68
-43.34
-48.90
-53.94
-57.80
-59.96
-60.27
-59.17
-57.37
-55.50
-53.55
-50.79
-45.88
-37.44
-24.58
-7.33
13.21
35.16
56.32
74.82
89.54
100.36
107.88
112.98
116.36
118.21
118.34
116.48
112.66
107.37
101.50
95.99
91.43
87.77
84.26
79.80
73.39
64.62
53.95
42.51
31.63
22.19
14.40
7.73
1.40
-5.10
-11.75
-18.17
-23.96
-28.91
-32.76
-34.79
-33.97
-29.57
-22.14
-14.00
-8.54
-8.62
-14.80
-24.72
-34.08
-38.66
-36.38
-27.89
-15.74
-2.65
9.73
21.04
31.49
40.89
48.35
52.77
53.57
51.17
46.88
42.36
38.89
36.85
35.81
34.75
32.66
28.98
23.96
18.50
13.84
10.95
10.09
10.73
11.80
12.19
11.15
8.53
4.57
-0.32
-5.78
-11.64
-17.84
-24.24
-30.59
-36.46
-41.38
-44.89
-46.66
-46.55
-44.78
-41.97
-39.12
-37.33
-37.52
-40.08
-44.73
-50.54
-56.28
-60.85
-63.59
-64.51
-64.21
-63.52
-63.14
-63.27
-63.46
-62.78
-60.24
-55.25
-47.96
-39.24
-30.36
-22.51
-16.35
-11.93
-8.75
-6.09
-3.29
0.00
3.77
7.77
11.65
15.17
18.24
20.87
23.08
24.76
25.75
25.89
25.27
24.15
22.97
22.14
21.89
22.25
23.11
24.25
25.40
26.14
25.92
24.10
20.20
14.19
6.55
-1.81
-9.83
-16.72
-22.08
-26.06
-29.12
-31.88
-34.85
-38.28
-42.10
-45.95
-49.21
-51.17
-51.16
-48.73
-43.77
-36.65
-28.17
-19.39
-11.36
-4.73
0.32
4.13
7.38
10.71
14.57
19.06
24.00
29.04
33.82
38.05
41.64
44.69
47.54
50.53
53.93
57.64
61.12
63.64
64.49
63.37
60.48
56.45
52.03
47.89
44.40
41.63
39.42
37.46
35.38
32.80
29.39
24.94
19.41
12.97
5.97
-1.14
-7.90
-14.00
-19.31
-23.92
-28.05
-31.86
-35.33
-38.11
-39.68
-39.59
-37.72
-34.38
-30.20
-25.89
-21.91
-18.44
-15.40
-12.70
-10.37
-8.46
-6.98
-5.68
-4.08
-1.70
1.66
5.71
9.80
13.14
15.22
15.93
15.56
14.58
13.37
12.05
10.54
8.67
6.26
3.29
-0.19
-4.05
-8.15
-12.32
-16.34
-19.96
-22.83
-24.69
-25.43
-25.31
-24.89
-24.92
-26.05
-28.65
-32.65
-37.62
-42.96
-48.11
-52.71
-56.64
-60.04
-63.24
-66.69
-70.95
-76.43
-83.26
-91.09
-99.13
-106.28
-111.49
-114.08
-113.89
-111.32
-107.06
-101.82
-96.12
-90.28
-84.44
-78.68
-73.04
-67.41
-61.43
-54.73
-47.31
-40.17
-35.41
-35.81
-43.63
-59.19
-80.20
-102.15
-119.90
-129.67
-130.42
-124.06
-114.30
-104.87
-98.04
-94.09
-91.66
-88.66
-83.09
-73.18
-57.10
-32.67
2.09
47.44
100.33
153.62
197.21
220.93
217.96
187.09
132.93
63.70
-11.84
-86.82
-156.88
-219.21
-270.92
-308.37
-327.85
-327.28
-307.60
-273.06
-229.90
-184.16
-140.01
-98.88
-60.02
-21.91
16.51
55.48
94.88
134.92
176.42
219.99
265.06
309.13
348.26
378.38
396.90
403.61
400.59
391.06
378.15
363.96
349.13
332.91
313.44
288.05
253.55
206.90
146.20
72.02
-11.63
-97.34
-175.67
-237.37
-276.06
-289.96
-282.10
-258.96
-228.05
-195.74
-166.18
-141.47
-122.57
-110.16
-104.69
-105.87
-112.22
-121.04
-129.22
-134.34
-135.47
-133.36
-129.91
-127.05
-125.78
-125.84
-126.01
-125.06
-122.49
-118.88
-115.37
-112.73
-110.67
-107.67
-101.83
-91.95
-78.52
-63.79
-50.83
-42.21
-38.64
-38.57
-38.92
-36.58
-30.09
-20.46
-10.65
-3.76
-1.13
-0.96
1.14
10.42
30.85
63.70
107.43
158.77
213.16
265.08
307.84
334.35
339.48
323.27
292.77
260.86
241.15
241.31
258.41
279.28
286.53
267.33
220.06
155.44
91.42
45.00
25.21
31.14
54.90
87.32
122.42
158.68
196.32
233.98
266.76
287.70
291.89
279.67
257.45
235.53
223.41
225.73
240.85
262.43
283.17
298.41
307.54
312.99
317.68
322.63
326.28
325.57
317.81
302.35
280.74
255.79
230.12
205.09
180.60
155.82
130.20
103.99
78.05
53.28
30.12
8.45
-12.35
-33.32
-55.31
-78.74
-103.20
-127.13
-147.83
-162.15
-167.59
-163.48
-151.57
-135.61
-120.22
-109.36
-105.21
-107.83
-115.65
-126.38
-137.75
-148.05
-156.15
-161.49
-164.04
-164.31
-163.20
-161.77
-160.90
-160.88
-161.34
-161.40
-160.05
-156.79
-151.94
-146.71
-142.85
-142.02
-145.15
-152.16
-162.09
-173.56
-185.38
-196.96
-208.41
-220.26
-232.97
-246.47
-259.98
-272.11
-281.21
-285.94
-285.56
-280.02
-269.72
-255.27
-237.30
-216.43
-193.38
-169.00
-144.31
-120.35
-98.03
-77.99
-60.64
-46.09
-34.19
-24.54
-16.54
-9.46
-2.46
5.39
15.11
27.65
43.62
62.85
84.11
105.17
123.36
136.38
143.11
143.87
140.23
134.42
128.58
124.36
122.75
124.22
128.77
136.05
145.32
155.53
165.56
174.45
181.65
187.07
190.96
193.66
195.36
196.10
195.97
195.42
195.52
197.85
203.89
214.12
227.22
239.99
248.13
247.78
237.02
216.58
189.36
159.08
128.68
99.21
69.87
38.81
4.50
-33.11
-72.11
-108.96
-139.49
-160.26
-169.64
-168.31
-158.88
-144.86
-129.45
-114.77
-101.73
-90.43
-80.76
-72.80
-66.73
-62.54
-59.87
-57.95
-55.99
-53.41
-50.09
-46.29
-42.51
-39.16
-36.42
-34.21
-32.23
-30.22
-28.06
-25.92
-24.27
-23.72
-24.71
-27.32
-31.15
-35.42
-39.30
-42.24
-44.18
-45.46
-46.61
-48.03
-49.80
-51.68
-53.29
-54.40
-55.10
-55.77
-56.96
-59.10
-62.34
-66.46
-70.97
-75.25
-78.67
-80.69
-80.87
-78.95
-74.85
-68.79
-61.27
-53.01
-44.75
-37.07
-30.26
-24.32
-19.05
-14.20
-9.56
-5.00
-0.53
3.70
7.37
10.04
11.33
11.05
9.33
6.67
3.75
1.27
-0.33
-0.96
-0.88
-0.53
-0.37
-0.81
-2.09
-4.37
-7.71
-12.02
-16.91
-21.69
-25.38
-26.98
-25.87
-22.00
-16.05
-9.16
-2.63
2.34
4.92
4.58
1.17
-5.11
-13.58
-23.13
-32.37
-40.03
-45.28
-47.96
-48.47
-47.40
-45.18
-41.83
-37.08
-30.59
-22.29
-12.56
-2.19
7.85
16.66
23.67
28.76
32.25
34.77
37.00
39.44
42.21
45.02
47.33
48.53
48.23
46.34
43.04
38.69
33.57
27.80
21.41
14.40
6.96
-0.54
-7.57
-13.62
-18.34
-21.66
-23.75
-24.96
-25.67
-26.20
-26.70
-27.17
-27.48
-27.54
-27.31
-26.97
-26.87
-27.33
-28.57
-30.53
-32.93
-35.46
-38.00
-40.70
-43.82
-47.56
-51.80
-56.12
-59.83
-62.21
-62.59
-60.35
-54.85
-45.64
-32.62
-16.34
1.90
20.32
37.06
50.64
60.29
65.89
67.83
66.68
63.09
57.65
50.88
43.18
34.73
25.63
16.04
6.38
-2.62
-10.27
-16.35
-21.34
-26.37
-32.74
-41.40
-52.58
-65.77
-79.86
-93.37
-104.59
-111.57
-112.54
-106.48
-93.81
-76.71
-58.69
-43.55
-33.94
-30.54
-31.94
-35.55
-38.77
-40.04
-39.16
-37.00
-34.78
-33.40
-33.10
-33.45
-33.72
-33.11
-30.95
-26.77
-20.29
-11.38
-0.08
13.32
28.27
43.99
59.56
74.10
86.94
97.82
107.00
115.17
123.21
131.90
141.55
151.91
162.25
171.62
179.28
185.05
189.47
193.69
199.01
206.18
214.83
223.02
227.85
226.19
215.94
196.94
171.07
141.60
112.36
86.90
67.97
57.22
54.68
58.20
63.34
64.15
55.03
33.12
-0.14
-39.22
-76.56
-105.70
-123.64
-131.52
-133.19
-132.76
-132.60
-132.66
-131.28
-126.74
-118.42
-107.04
-94.05
-80.75
-67.63
-54.49
-41.03
-27.44
-14.54
-3.48
4.98
11.01
15.67
20.35
25.90
32.04
37.40
40.20
39.15
34.15
26.48
18.35
12.27
10.29
13.58
22.18
35.15
50.75
66.90
81.56
93.23
101.30
106.00
108.14
108.51
107.50
104.96
100.32
93.04
82.91
70.21
55.56
39.62
22.88
5.66
-11.82
-29.13
-45.58
-60.38
-72.77
-82.32
-88.99
-93.00
-94.66
-94.21
-91.73
-87.21
-80.63
-72.08
-61.99
-51.10
-40.51
-31.53
-25.32
-22.67
-23.76
-28.22
-35.25
-43.88
-53.18
-62.36
-70.79
-78.09
-84.16
-89.13
-93.35
-97.20
-100.98
-104.77
-108.43
-111.71
-114.39
-116.28
-117.31
-117.47
-116.75
-115.19
-112.78
-109.48
-105.26
-100.11
-94.23
-87.91
-81.49
-75.32
-69.74
-65.15
-62.06
-60.99
-62.14
-65.07
-68.45
-70.34
-68.81
-62.94
-53.31
-41.96
-31.60
-24.28
-20.56
-19.34
-18.66
-16.88
-13.91
-11.11
-10.61
-13.85
-20.37
-27.75
-32.77
-33.04
-28.08
-19.21
-8.36
2.86
13.30
21.38
24.15
17.91
0.67
-24.87
-50.10
-62.87
-53.09
-18.36
33.82
89.22
133.81
160.27
170.25
171.13
169.90
168.11
161.26
142.56
108.17
60.72
8.57
-38.32
-73.25
-95.18
-108.07
-117.43
-126.71
-135.72
-141.40
-140.62
-132.80
-120.80
-109.54
-103.23
-102.71
-104.90
-104.49
-96.95
-80.97
-59.12
-36.42
-18.07
-7.65
-6.58
-14.52
-29.75
-49.43
-69.69
-86.25
-95.53
-95.98
-88.67
-76.84
-64.36
-54.15
-47.27
-43.08
-40.20
-37.25
-33.36
-27.97
-20.78
-11.85
-1.84
7.97
15.90
20.58
21.35
18.40
12.50
4.52
-5.06
-16.20
-29.17
-44.17
-60.91
-78.52
-95.66
-110.80
-122.67
-130.27
-133.00
-130.54
-122.92
-110.65
-94.86
-77.35
-60.16
-45.13
-33.40
-25.25
-20.25
-17.67
-16.94
-17.71
-19.83
-22.95
-26.38
-29.00
-29.51
-26.71
-19.79
-8.55
6.83
25.92
48.43
74.11
102.12
130.26
154.42
169.15
169.23
151.96
118.65
74.60
27.29
-16.23
-51.45
-76.87
-92.96
-100.53
-99.80
-90.57
-73.14
-49.01
-20.63
9.50
39.81
69.78
99.10
126.64
149.97
165.89
171.71
166.46
151.29
128.88
102.28
73.99
45.64
18.54
-5.70
-24.88
-36.59
-39.03
-31.86
-16.27
5.64
31.82
60.83
91.69
123.37
154.34
182.99
208.60
232.18
256.24
283.44
314.81
348.68
381.14
407.89
426.27
436.47
441.05
443.45
446.26
450.17
454.22
456.64
455.99
451.86
445.00
436.81
428.57
420.55
411.59
399.42
381.45
356.02
323.24
284.94
243.86
202.57
162.53
124.04
86.79
50.58
15.80
-16.68
-46.10
-72.41
-96.57
-120.07
-144.16
-168.93
-192.99
-213.90
-229.14
-237.24
-238.46
-234.49
-227.74
-220.14
-212.55
-204.78
-196.14
-186.18
-175.02
-163.23
-151.47
-140.17
-129.47
-119.45
-110.21
-101.94
-94.82
-88.87
-83.86
-79.33
-74.78
-69.73
-63.84
-57.00
-49.32
-41.16
-33.02
-25.37
-18.36
-11.85
-5.44
1.13
7.72
13.68
18.16
20.52
20.74
19.47
17.73
16.39
15.74
15.37
14.44
12.08
7.84
1.79
-5.50
-13.25
-20.72
-27.21
-32.16
-35.13
-35.95
-35.01
-33.57
-33.70
-37.95
-48.46
-66.10
-89.89
-117.05
-143.84
-166.80
-183.77
-194.25
-198.98
-199.09
-195.40
-188.25
-177.97
-165.33
-151.79
-139.05
-128.32
-119.63
-111.74
-102.76
-91.08
-76.17
-58.71
-40.19
-22.11
-5.54
9.07
21.61
32.02
40.22
46.09
49.69
51.23
50.88
48.62
44.18
37.11
27.07
13.95
-2.14
-20.95
-42.24
-65.76
-91.13
-117.66
-144.37
-170.23
-194.50
-216.99
-238.12
-258.64
-279.23
-299.97
-320.32
-339.22
-355.50
-368.34
-377.56
-383.61
-387.35
-389.62
-390.85
-390.84
-388.75
-383.37
-373.57
-358.68
-338.72
-314.28
-286.19
-255.17
-221.70
-186.09
-148.63
-109.77
-70.06
-30.13
9.22
47.00
82.21
114.31
143.77
172.10
201.17
231.91
263.10
291.21
311.64
320.55
316.58
301.27
278.13
251.09
223.52
198.12
177.59
165.12
163.68
174.63
196.19
223.14
248.18
264.43
267.88
258.72
241.01
220.95
204.77
196.83
198.64
208.79
223.59
238.20
247.92
249.23
240.64
222.67
197.30
166.95
133.58
97.94
59.61
17.70
-27.99
-75.87
-122.06
-161.19
-188.18
-200.39
-198.81
-187.94
-174.22
-163.80
-160.76
-166.47
-180.03
-199.08
-220.48
-240.64
-255.74
-262.29
-257.99
-242.55
-217.93
-187.77
-156.15
-126.54
-100.94
-79.75
-62.01
-46.07
-30.36
-14.36
0.60
11.33
13.63
3.90
-18.99
-52.58
-91.22
-127.61
-154.95
-168.76
-167.71
-153.23
-128.38
-96.51
-60.32
-21.69
18.07
57.57
95.12
128.52
155.76
175.76
188.89
197.12
203.67
212.18
225.51
244.47
266.56
285.80
293.88
283.14
250.12
198.07
136.81
79.45
37.37
16.11
14.25
25.57
43.00
61.98
81.31
101.75
123.64
145.72
165.54
181.27
193.24
204.10
217.61
236.31
259.87
284.71
304.99
314.52
308.63
285.35
245.60
192.55
130.40
63.24
-5.85
-75.29
-144.91
-215.12
-285.81
-355.19
-419.55
-474.07
-514.34
-537.95
-545.05
-537.83
-519.19
-491.53
-456.47
-415.32
-369.82
-322.45
-275.74
-231.14
-188.03
-143.58
-93.96
-36.31
29.20
98.28
162.98
213.58
241.56
242.56
218.28
176.38
128.50
86.79
60.44
53.45
64.27
87.33
115.55
142.73
164.88
180.38
189.17
191.81
188.94
181.22
169.82
156.40
142.93
130.89
120.81
112.09
103.45
93.71
82.41
70.15
58.28
48.27
41.10
36.87
34.80
33.69
32.59
31.24
30.21
30.54
33.12
38.13
44.84
51.76
57.20
59.94
59.56
56.52
51.91
46.87
42.29
38.46
35.08
31.39
26.46
19.44
9.85
-2.26
-16.23
-30.99
-45.16
-57.36
-66.42
-71.64
-72.81
-70.24
-64.60
-56.77
-47.67
-38.08
-28.49
-19.13
-10.00
-1.02
7.87
16.71
25.56
34.47
43.47
52.40
60.83
68.06
73.40
76.44
77.34
76.85
75.97
75.50
75.62
75.77
75.00
72.39
67.57
60.80
52.84
44.41
35.91
27.24
18.06
8.12
-2.46
-13.20
-23.56
-33.26
-42.41
-51.38
-60.47
-69.69
-78.65
-86.74
-93.44
-98.47
-101.87
-103.85
-104.63
-104.40
-103.26
-101.09
-97.26
-90.40
-78.35
-58.72
-29.99
7.45
50.78
95.35
136.13
169.38
193.81
210.47
221.79
230.18
237.04
242.38
245.25
244.32
238.45
226.94
209.74
187.36
160.89
131.84
101.94
72.89
46.14
22.77
3.27
-12.50
-25.33
-36.53
-47.62
-59.71
-73.22
-87.64
-101.83
-114.51
-124.58
-131.47
-135.10
-135.91
-134.73
-132.75
-131.33
-131.55
-133.73
-137.02
-139.30
-137.74
-129.78
-114.07
-91.20
-63.54
-34.66
-8.23
12.95
27.46
35.41
38.22
38.04
37.20
37.68
40.63
46.28
54.06
62.96
72.00
80.31
87.12
91.68
93.38
92.04
88.11
82.51
75.77
67.24
54.97
36.72
11.81
-17.41
-45.61
-66.21
-74.06
-67.51
-48.78
-22.66
5.49
31.37
52.20
66.27
72.34
69.48
57.36
36.73
9.31
-22.71
-57.38
-93.18
-128.65
-161.61
-188.87
-206.58
-211.18
-200.66
-175.39
-138.20
-93.87
-48.27
-7.28
24.04
42.18
45.87
36.08
15.50
-12.27
-43.55
-74.81
-102.28
-121.87
-129.71
-123.33
-102.99
-71.89
-35.07
2.68
38.56
71.95
102.91
130.18
150.09
157.33
147.32
118.43
73.03
16.64
-43.90
-102.32
-153.94
-196.05
-227.69
-249.22
-261.79
-266.86
-265.87
-260.01
-250.58
-239.13
-227.55
-217.54
-209.61
-202.19
-191.66
-173.67
-145.42
-107.71
-65.41
-25.94
3.68
19.77
23.16
18.36
11.19
6.05
4.57
5.85
8.06
10.02
11.91
14.64
18.61
22.72
24.48
21.03
10.62
-6.55
-28.38
-51.94
-74.77
-95.76
-115.32
-134.50
-153.84
-172.71
-189.17
-200.66
-204.87
-200.35
-186.30
-162.06
-126.92
-80.84
-25.79
33.35
89.39
135.08
165.90
181.94
187.44
188.32
189.02
190.63
191.09
187.32
177.55
162.46
144.52
126.39
109.46
93.58
77.97
62.33
47.47
34.86
25.99
21.31
19.99
20.20
20.01
18.13
14.34
9.48
4.81
1.40
-0.44
-1.22
-1.90
-3.35
-5.73
-8.27
-9.38
-7.24
-0.43
11.35
26.94
43.87
58.90
69.07
72.64
69.71
62.31
53.65
47.12
45.15
48.69
57.03
68.26
79.84
89.17
94.10
93.27
86.32
73.76
56.75
36.52
14.26
-8.76
-30.64
-48.57
-59.06
-58.97
-46.73
-22.83
10.64
51.36
97.61
147.99
199.91
248.07
284.15
298.85
285.29
242.39
176.14
98.09
21.63
-42.08
-86.14
-108.18
-108.49
-88.12
-48.41
8.14
76.43
148.58
215.57
269.95
308.10
330.74
341.39
343.72
339.72
329.32
311.63
286.41
254.76
218.63
179.87
139.63
98.39
56.60
15.11
-24.96
-62.45
-96.59
-127.04
-153.86
-177.21
-197.31
-213.64
-224.62
-227.77
-220.51
-201.96
-174.56
-144.60
-120.75
-111.46
-121.87
-151.79
-195.69
-244.22
-286.63
-313.16
-317.20
-296.81
-255.31
-200.15
-140.52
-84.29
-35.83
4.18
37.17
64.41
85.63
99.60
106.07
107.31
108.35
115.19
131.94
158.84
191.99
225.08
252.06
269.08
274.90
269.90
254.91
230.25
195.99
153.02
103.97
53.48
7.24
-29.72
-54.55
-67.43
-71.03
-69.32
-66.06
-63.82
-63.62
-65.10
-67.02
-67.82
-66.30
-62.10
-55.85
-48.95
-43.00
-39.07
-37.24
-36.55
-35.46
-32.69
-27.88
-21.77
-15.85
-11.56
-9.76
-10.56
-13.49
-17.69
-21.59
-22.48
-16.38
1.04
32.41
76.52
127.48
175.90
211.99
228.98
225.00
202.58
166.36
120.69
68.72
13.37
-40.88
-87.22
-117.67
-126.09
-111.06
-77.30
-34.30
6.97
37.89
54.81
59.29
56.29
51.22
47.37
44.93
41.76
35.18
23.93
8.99
-6.76
-20.09
-28.95
-33.21
-34.49
-35.01
-36.34
-38.65
-40.94
-41.70
-39.88
-35.38
-29.11
-22.41
-16.46
-11.79
-8.19
-5.03
-1.75
1.80
5.23
7.83
9.02
8.71
7.49
6.54
7.30
11.04
18.42
29.31
42.82
57.63
72.35
85.87
97.34
106.02
111.17
112.11
108.79
102.19
94.43
87.95
84.26
82.80
80.57
73.15
56.36
28.00
-11.37
-58.67
-109.59
-159.87
-206.26
-246.83
-280.82
-308.33
-330.05
-346.94
-359.80
-368.93
-373.44
-371.26
-359.28
-334.10
-293.56
-238.77
-175.35
-113.05
-63.08
-34.08
-28.56
-41.91
-64.25
-84.50
-94.43
-90.70
-74.16
-47.71
-14.70
20.98
53.86
76.49
81.09
62.88
23.29
-29.27
-81.78
-120.91
-137.32
-128.39
-98.27
-56.39
-14.53
15.93
26.22
12.06
-25.24
-78.89
-138.17
-191.35
-229.03
-246.58
-244.63
-227.90
-202.97
-175.84
-150.53
-128.76
-110.37
-93.94
-77.11
-56.88
-29.95
5.90
49.99
97.41
139.06
163.93
162.86
132.38
76.66
6.89
-62.15
-116.47
-146.44
-148.24
-123.35
-77.05
-17.38
45.31
98.79
130.72
131.87
99.70
40.33
-32.50
-101.80
-152.99
-178.31
-177.99
-158.02
-126.28
-89.31
-51.17
-14.17
19.84
48.89
71.45
87.49
98.51
107.05
115.57
125.53
137.80
153.68
175.99
208.79
255.38
315.53
383.85
450.50
504.38
537.45
547.64
539.16
519.93
497.98
478.49
463.10
451.01
440.94
432.41
425.74
421.05
417.31
412.20
403.06
388.11
367.28
342.14
315.29
289.04
264.59
241.78
219.48
196.43
171.94
146.32
120.75
96.81
75.75
58.22
44.08
32.77
23.64
16.18
10.12
5.19
0.97
-3.25
-8.24
-14.58
-22.38
-31.28
-40.70
-50.25
-60.14
-71.13
-84.20
-99.87
-117.66
-136.02
-152.78
-166.18
-175.61
-182.11
-187.94
-195.65
-207.14
-223.10
-242.99
-265.24
-287.34
-306.00
-317.88
-320.71
-314.58
-302.39
-288.82
-278.20
-272.26
-269.21
-264.72
-254.49
-236.88
-214.28
-192.56
-179.00
-179.62
-196.94
-228.74
-268.31
-306.31
-333.76
-345.48
-342.45
-331.37
-321.52
-320.18
-329.07
-343.76
-356.32
-359.40
-349.28
-326.36
-293.41
-253.52
-209.30
-163.64
-120.78
-86.08
-64.13
-56.15
-58.64
-64.23
-64.69
-54.32
-31.78
0.24
36.99
74.06
108.64
139.81
168.39
196.57
227.33
263.07
303.83
345.80
381.33
401.13
397.53
367.37
312.69
239.54
155.61
68.62
-14.06
-84.82
-135.97
-161.13
-157.72
-128.83
-83.20
-32.85
10.62
39.23
50.27
45.78
30.87
11.67
-6.58
-20.70
-30.14
-37.04
-45.84
-62.12
-90.60
-133.17
-186.80
-243.04
-289.67
-314.12
-307.55
-267.86
-200.57
-117.33
-32.57
40.46
92.98
122.75
134.36
137.68
144.51
164.19
199.46
244.83
288.31
316.39
319.93
298.07
257.85
210.65
167.03
132.94
109.07
92.70
80.61
71.16
64.87
63.25
67.51
77.70
92.49
109.58
126.05
138.78
144.99
142.79
131.59
112.18
86.31
56.06
23.42
-9.75
-41.50
-69.69
-92.20
-107.68
-116.12
-119.08
-119.29
-119.75
-122.80
-129.49
-139.51
-151.70
-164.71
-177.68
-190.42
-203.43
-217.42
-233.06
-250.69
-270.13
-290.51
-310.12
-326.43
-336.46
-337.63
-328.77
-310.57
-285.58
-257.15
-228.33
-200.90
-175.15
-150.30
-125.26
-99.06
-70.82
-39.64
-4.86
33.01
71.41
105.41
128.96
137.01
127.95
104.72
74.07
44.09
21.32
8.68
5.34
8.26
14.33
21.89
30.95
42.35
56.53
72.94
90.31
107.34
123.63
139.92
157.93
179.66
206.81
240.32
280.21
325.17
372.28
416.90
453.31
476.20
482.21
471.08
445.45
409.72
368.36
324.80
281.34
239.66
201.51
168.67
142.33
122.29
106.67
92.50
77.12
59.22
39.38
19.78
2.79
-10.04
-18.52
-23.04
-23.50
-18.83
-7.81
9.23
29.05
45.82
53.26
47.43
28.60
0.78
-30.46
-60.55
-87.02
-109.02
-125.85
-136.01
-137.90
-131.33
-118.61
-104.32
-93.36
-88.79
-90.70
-96.80
-103.69
-108.75
-110.95
-110.80
-109.82
-109.67
-111.54
-115.82
-121.92
-128.46
-133.75
-136.41
-135.81
-132.30
-126.81
-120.29
-113.26
-105.67
-97.33
-88.48
-80.09
-73.75
-70.92
-72.16
-76.51
-81.60
-84.33
-81.99
-73.38
-59.31
-42.29
-25.63
-11.96
-2.23
4.45
10.24
17.28
26.77
38.89
53.30
69.62
87.33
105.04
120.00
128.57
128.40
120.25
109.08
102.60
107.80
127.38
158.19
193.04
224.69
249.43
268.10
283.99
299.28
312.55
319.28
314.62
296.64
267.79
233.70
200.14
170.28
143.61
117.08
87.36
52.90
14.67
-24.43
-60.88
-91.78
-115.49
-131.79
-141.59
-146.10
-146.33
-142.82
-135.81
-125.68
-113.48
-101.13
-90.98
-85.05
-84.17
-87.68
-93.54
-99.06
-101.87
-100.61
-95.39
-87.64
-79.53
-73.13
-69.69
-69.29
-71.03
-73.56
-75.76
-77.17
-77.88
-78.12
-77.86
-76.69
-74.18
-70.35
-65.97
-62.37
-60.83
-61.89
-65.06
-68.98
-72.07
-73.18
-71.95
-68.60
-63.59
-57.20
-49.56
-40.85
-31.79
-23.72
-18.48
-17.63
-21.79
-30.15
-40.66
-50.61
-57.54
-59.76
-56.68
-48.67
-36.79
-22.58
-7.95
5.02
14.47
19.22
19.21
15.58
10.14
4.57
-0.30
-4.73
-9.66
-16.08
-24.26
-33.41
-41.70
-46.81
-46.65
-40.23
-28.15
-12.65
3.14
16.22
24.83
28.87
29.64
28.83
27.50
25.66
22.50
17.40
10.68
3.85
-1.01
-2.22
0.54
5.94
11.55
14.91
14.58
10.74
5.07
-0.13
-2.86
-2.30
1.05
5.73
9.95
11.75
9.03
-0.40
-18.13
-43.92
-74.60
-104.20
-125.67
-133.75
-127.30
-109.99
-88.53
-69.63
-57.10
-50.87
-48.19
-45.91
-42.52
-38.52
-35.18
-32.99
-30.69
-25.76
-15.92
-0.55
18.62
38.21
54.64
65.69
71.30
73.19
73.92
75.45
78.32
81.57
83.43
82.50
78.56
72.69
66.64
61.75
58.33
55.66
52.72
49.05
45.10
41.79
39.64
38.44
37.64
37.35
38.80
43.66
52.45
63.20
71.51
72.37
62.73
42.92
16.23
-13.48
-44.12
-76.19
-111.62
-151.28
-193.09
-232.10
-262.37
-279.58
-282.72
-274.07
-257.70
-237.58
-216.31
-195.12
-174.91
-157.21
-144.35
-138.49
-140.03
-146.33
-151.85
-149.59
-133.51
-100.56
-51.91
7.34
69.49
126.01
169.50
195.34
202.64
194.42
176.49
155.40
136.05
120.11
106.10
90.95
72.28
49.96
26.38
5.10
-10.81
-20.10
-23.46
-22.70
-19.61
-15.24
-9.75
-3.12
4.26
11.29
16.41
18.34
16.78
12.69
8.05
5.14
5.68
10.24
18.04
27.38
36.29
43.24
47.66
49.95
51.12
52.34
54.48
57.98
62.87
68.65
74.22
77.65
76.45
68.21
51.80
28.22
0.65
-26.37
-48.62
-63.65
-71.43
-73.83
-73.44
-72.29
-71.31
-70.45
-69.30
-67.65
-65.64
-63.45
-60.99
-57.69
-52.74
-45.53
-36.10
-25.25
-14.25
-4.23
4.29
11.52
18.15
24.78
31.53
37.99
43.47
47.37
49.39
49.64
48.42
46.13
43.24
40.23
37.45
35.06
32.98
31.03
29.12
27.44
26.32
25.97
26.23
26.61
26.41
25.10
22.50
18.74
14.16
9.15
4.13
-0.45
-4.19
-6.83
-8.36
-9.05
-9.32
-9.66
-10.49
-12.10
-14.66
-18.11
-22.19
-26.39
-30.14
-32.93
-34.48
-34.58
-33.18
-30.15
-25.46
-19.35
-12.55
-6.24
-1.83
-0.56
-3.03
-9.11
-17.93
-28.17
-38.45
-47.64
-55.06
-60.61
-64.69
-67.98
-71.17
-74.56
-77.77
-79.78
-79.28
-75.35
-68.17
-59.22
-50.89
-45.55
-44.47
-47.30
-52.27
-57.11
-60.04
-60.38
-58.48
-55.03
-50.50
-44.88
-37.99
-30.09
-22.17
-15.80
-12.29
-12.00
-13.98
-16.49
-17.86
-17.31
-15.05
-11.82
-8.22
-4.24
0.46
6.06
12.07
17.48
21.25
23.15
23.98
25.28
28.48
34.17
41.76
49.88
57.08
62.42
65.78
67.64
68.62
69.18
69.40
69.06
67.96
66.18
64.09
62.26
61.06
60.45
59.89
58.60
55.85
51.35
45.31
38.33
31.16
24.36
18.27
12.98
8.43
4.49
0.99
-2.34
-5.90
-10.14
-15.48
-22.16
-30.21
-39.37
-49.03
-58.12
-65.25
-69.05
-68.58
-63.89
-55.98
-46.52
-37.08
-28.54
-20.78
-13.00
-4.20
6.19
18.14
31.11
44.35
57.10
68.67
78.44
85.86
90.68
93.03
93.48
92.78
91.47
89.70
87.13
83.21
77.54
70.11
61.33
51.91
42.57
33.95
26.55
20.81
17.09
15.57
16.08
18.01
20.51
22.71
24.14
24.84
25.21
25.60
26.00
25.80
24.09
20.08
13.54
5.03
-4.42
-13.73
-22.15
-29.51
-36.00
-41.95
-47.56
-52.95
-58.12
-62.97
-67.27
-70.46
-71.62
-69.69
-63.87
-54.01
-40.74
-25.42
-9.41
6.30
21.26
35.57
49.71
64.41
80.51
98.58
118.51
139.13
158.03
171.94
177.52
172.38
156.01
130.06
97.97
64.16
32.88
7.44
-10.38
-20.47
-24.16
-23.79
-22.06
-21.43
-23.35
-28.04
-34.56
-41.06
-45.44
-46.35
-43.59
-38.20
-32.11
-27.34
-25.23
-26.09
-29.25
-33.49
-37.53
-40.37
-41.47
-40.65
-38.08
-34.22
-29.78
-25.55
-22.24
-20.20
-19.23
-18.60
-17.20
-13.96
-8.18
0.08
10.04
20.31
29.33
35.92
39.66
41.02
41.10
41.05
41.59
42.74
43.96
44.56
44.12
42.69
40.57
38.04
35.08
31.35
26.38
19.86
11.94
3.13
-5.79
-14.04
-21.04
-26.56
-30.75
-34.10
-37.25
-40.76
-44.94
-49.74
-54.74
-59.39
-63.09
-65.35
-65.85
-64.57
-61.77
-58.03
-54.00
-50.07
-46.04
-41.03
-33.76
-23.38
-10.18
3.96
15.98
22.63
21.71
12.89
-2.31
-21.22
-41.00
-59.11
-73.40
-81.80
-82.50
-74.46
-58.37
-37.11
-15.34
2.07
11.82
13.40
9.09
2.60
-2.62
-4.81
-4.14
-2.09
-0.29
0.45
0.34
0.31
1.12
2.74
4.10
3.28
-1.62
-12.06
-28.63
-51.04
-78.25
-108.11
-136.86
-158.98
-168.15
-159.41
-131.69
-89.15
-40.35
4.88
39.17
60.14
70.23
74.32
76.55
78.47
79.37
77.99
74.41
70.54
69.03
71.53
77.60
84.96
90.72
93.05
91.84
88.45
84.92
82.91
83.29
86.18
91.23
97.74
104.69
110.60
113.74
112.53
105.99
94.16
77.98
58.80
37.79
15.53
-8.06
-33.43
-60.77
-89.57
-118.08
-143.27
-161.32
-168.58
-162.86
-144.35
-115.79
-81.79
-47.52
-17.24
6.53
23.18
33.51
39.05
41.50
42.48
43.54
46.03
50.90
58.34
67.57
77.02
84.88
89.78
91.36
90.31
88.10
86.32
86.18
88.06
91.61
95.90
99.80
102.28
102.65
100.71
96.66
91.00
84.14
76.23
67.11
56.68
45.28
33.95
24.26
17.61
14.66
14.92
16.98
19.01
19.44
17.29
12.09
3.66
-8.04
-22.83
-39.97
-57.85
-74.24
-86.79
-93.80
-94.94
-91.37
-85.33
-79.24
-74.90
-72.93
-72.71
-72.77
-71.30
-66.78
-58.30
-45.92
-30.64
-14.48
-0.11
9.62
12.32
6.55
-7.70
-28.83
-53.96
-79.38
-101.45
-117.60
-127.07
-131.22
-133.01
-136.09
-143.34
-156.12
-174.08
-195.57
-218.62
-241.65
-263.75
-284.51
-304.04
-323.20
-343.64
-367.26
-394.86
-424.60
-451.29
-467.48
-466.05
-443.28
-400.60
-344.05
-281.68
-220.48
-164.30
-113.83
-68.05
-26.02
12.34
46.59
76.64
103.35
128.13
152.13
175.60
197.96
218.35
236.62
253.71
271.02
289.37
308.00
324.30
334.65
335.86
326.62
308.12
283.52
256.81
231.28
208.64
188.85
170.71
152.80
134.33
115.62
97.82
82.47
70.93
64.30
63.37
68.60
79.30
92.58
103.10
104.61
93.24
70.42
43.30
21.53
12.12
15.15
23.56
27.31
19.44
0.18
-23.37
-41.74
-48.56
-43.61
-31.88
-19.89
-11.94
-8.73
-8.51
-9.39
-11.01
-14.42
-20.87
-30.29
-40.70
-48.66
-50.70
-44.85
-31.69
-14.27
2.87
15.47
21.23
20.66
16.65
12.75
10.97
10.36
7.23
-2.88
-22.32
-49.05
-76.32
-94.60
-94.88
-72.03
-26.79
34.18
100.01
158.39
198.54
213.68
202.42
169.09
122.76
74.96
36.37
13.21
4.71
3.01
-3.90
-26.91
-70.29
-128.75
-188.67
-233.55
-251.49
-240.71
-210.26
-175.15
-148.85
-137.28
-137.36
-140.40
-137.71
-124.93
-102.61
-73.81
-40.84
-3.49
39.80
89.17
141.40
190.11
228.22
251.30
259.25
255.97
247.10
237.43
229.05
220.82
209.57
191.80
166.17
134.78
103.41
80.07
72.86
87.51
125.51
183.48
253.47
324.44
384.52
424.10
439.03
432.42
414.12
396.94
391.25
400.24
418.75
436.12
441.86
430.64
403.95
367.98
329.42
291.99
255.75
218.91
180.53
141.97
106.61
77.75
56.62
41.70
29.53
16.43
0.26
-18.58
-37.62
-53.49
-63.64
-67.40
-66.37
-63.63
-62.50
-65.22
-72.19
-82.08
-92.66
-102.01
-109.32
-115.21
-121.34
-129.60
-141.34
-157.06
-176.47
-198.77
-222.62
-246.08
-266.52
-280.98
-287.14
-284.38
-274.28
-260.22
-246.01
-234.33
-225.95
-219.90
-214.64
-209.26
-204.07
-200.19
-198.71
-199.87
-202.98
-206.81
-210.31
-213.02
-214.99
-216.59
-217.89
-218.58
-218.03
-215.66
-211.29
-205.28
-198.50
-192.01
-186.61
-182.58
-179.60
-176.89
-173.45
-168.30
-160.68
-150.35
-137.77
-124.24
-111.86
-103.08
-99.94
-103.50
-113.34
-127.81
-144.60
-161.48
-176.68
-188.86
-196.81
-199.16
-194.50
-181.93
-161.57
-134.84
-104.08
-71.89
-40.24
-10.03
18.80
46.55
73.31
98.73
122.40
144.41
165.41
186.03
205.78
222.24
231.29
228.40
210.66
178.34
135.16
87.07
40.20
-0.94
-34.41
-60.46
-80.74
-97.25
-111.85
-126.02
-140.61
-155.63
-169.98
-181.52
-187.61
-186.01
-175.76
-157.52
-133.26
-105.44
-76.14
-46.37
-16.13
14.95
46.81
78.31
107.29
131.35
148.89
159.82
165.59
168.38
169.91
170.67
169.89
166.29
159.11
148.71
136.36
123.70
112.10
102.50
95.70
92.61
94.22
100.91
111.94
125.23
137.89
147.28
151.92
151.82
148.06
141.97
134.41
125.61
115.50
104.18
92.23
80.47
69.61
59.86
50.94
42.51
34.65
28.09
23.94
23.14
25.71
30.41
34.96
36.75
33.86
25.87
14.10
1.28
-9.31
-14.86
-13.95
-6.92
4.37
17.21
29.10
38.43
44.88
49.07
51.93
53.99
55.05
54.37
51.21
45.37
37.52
28.87
20.62
13.30
6.58
-0.46
-8.72
-18.43
-29.00
-39.30
-48.26
-55.44
-61.22
-66.45
-71.92
-77.84
-83.68
-88.41
-90.98
-90.77
-87.74
-82.34
-75.22
-66.94
-57.82
-48.04
-37.72
-27.14
-16.68
-6.68
2.72
11.61
20.16
28.38
35.88
41.89
45.51
46.16
43.87
39.30
33.55
27.68
22.35
17.68
13.36
8.90
3.87
-1.87
-8.21
-14.75
-21.00
-26.52
-31.06
-34.65
-37.55
-40.20
-43.01
-46.26
-50.04
-54.23
-58.67
-63.25
-68.00
-73.13
-78.99
-85.81
-93.47
-101.26
-107.88
-111.76
-111.48
-106.46
-97.21
-85.24
-72.58
-60.97
-51.13
-42.50
-33.51
-22.13
-6.59
13.91
38.64
65.03
88.99
105.79
111.42
104.06
84.87
57.92
29.03
4.23
-11.71
-16.24
-9.18
7.51
30.38
55.13
77.30
93.14
100.31
98.42
88.99
74.88
59.32
45.12
33.99
26.22
20.92
16.42
10.97
3.34
-6.74
-18.64
-31.15
-43.19
-54.29
-64.80
-75.63
-87.63
-101.01
-114.94
-127.76
-137.54
-143.04
-144.32
-142.84
-140.96
-141.05
-144.44
-150.89
-158.37
-163.63
-163.20
-154.46
-136.42
-109.82
-76.76
-39.57
0.16
41.86
86.10
134.28
188.04
248.74
316.46
388.59
459.05
519.29
561.23
581.06
581.46
570.70
558.41
550.43
545.82
537.88
518.59
483.62
434.80
378.76
322.99
272.03
226.22
183.17
140.57
98.13
57.63
21.53
-9.10
-35.27
-59.63
-85.32
-114.54
-147.60
-183.43
-220.43
-257.54
-294.83
-333.01
-372.38
-411.64
-447.35
-474.45
-487.69
-483.44
-460.83
-422.28
-372.77
-318.57
-265.70
-218.58
-179.37
-147.98
-122.81
-101.67
-82.77
-65.12
-48.51
-33.13
-19.18
-6.73
4.16
13.36
20.67
26.00
29.54
31.82
33.52
35.15
36.93
38.71
40.14
40.83
40.39
38.54
35.13
30.23
24.28
18.04
12.46
8.31
5.96
5.24
5.50
5.92
5.76
4.59
2.26
-1.17
-5.50
-10.51
-15.84
-21.13
-26.08
-30.50
-34.38
-37.80
-40.71
-42.75
-43.24
-41.36
-36.59
-28.99
-19.37
-9.13
0.15
7.21
11.41
12.93
12.57
11.39
10.36
10.12
10.90
12.63
15.17
18.31
21.78
25.07
27.46
28.23
26.99
24.01
20.35
17.48
16.80
19.01
23.96
30.73
38.04
44.69
49.83
52.94
53.78
52.33
48.88
44.14
39.26
35.70
34.86
37.69
44.38
54.29
65.93
77.44
87.03
93.57
97.04
98.43
99.38
101.45
105.42
111.08
117.37
122.95
126.75
128.32
127.87
125.97
123.42
121.15
120.21
121.59
125.72
131.80
137.52
139.38
133.56
117.19
89.31
51.19
5.99
-42.09
-88.67
-129.81
-162.46
-184.76
-196.43
-199.03
-195.92
-191.79
-191.63
-199.38
-217.00
-244.25
-279.24
-319.72
-364.12
-411.79
-462.13
-513.17
-560.46
-597.27
-616.39
-612.48
-583.95
-533.20
-465.33
-386.70
-304.12
-224.97
-157.40
-109.04
-84.49
-82.65
-95.89
-112.29
-120.18
-112.72
-89.87
-57.12
-21.54
11.86
41.71
69.26
95.98
121.93
145.55
165.17
180.69
194.08
209.02
229.63
259.34
299.97
351.03
409.08
467.82
519.05
554.75
569.80
563.64
540.37
506.72
469.21
431.70
394.86
357.26
317.35
275.02
231.59
188.93
148.25
109.69
72.80
37.61
5.32
-21.92
-41.76
-53.10
-56.91
-56.21
-54.98
-56.59
-62.44
-71.52
-81.15
-88.22
-90.73
-88.50
-83.03
-76.71
-71.66
-68.86
-68.03
-67.93
-67.06
-64.35
-59.37
-52.34
-43.83
-34.48
-24.87
-15.48
-6.70
1.20
8.04
13.76
18.40
22.04
24.77
26.72
28.08
29.07
29.85
30.40
30.47
29.68
27.63
24.18
19.45
13.73
7.42
0.83
-5.77
-12.19
-18.22
-23.64
-28.28
-32.07
-35.11
-37.68
-40.09
-42.60
-45.19
-47.57
-49.23
-49.67
-48.61
-46.12
-42.64
-38.84
-35.42
-32.95
-31.72
-31.71
-32.62
-33.97
-35.22
-35.88
-35.59
-34.10
-31.27
-27.03
-21.43
-14.62
-6.89
1.31
9.51
17.16
23.79
28.97
32.41
33.96
33.67
31.73
28.45
24.15
19.09
13.52
7.66
1.78
-3.83
-8.89
-13.25
-16.93
-20.08
-22.83
-25.22
-27.16
-28.43
-28.87
-28.40
-27.14
-25.30
-23.18
-21.07
-19.22
-17.77
-16.78
-16.21
-15.98
-16.02
-16.39
-17.22
-18.66
-20.80
-23.52
-26.60
-29.74
-32.74
-35.57
-38.24
-40.75
-42.93
-44.42
-44.83
-43.80
-41.14
-36.79
-30.88
-23.59
-15.15
-5.96
3.50
12.62
20.85
27.76
33.15
37.04
39.56
40.93
41.26
40.68
39.28
37.24
34.77
32.06
29.20
26.17
22.83
19.03
14.80
10.28
5.79
1.66
-1.92
-4.92
-7.46
-9.63
-11.46
-12.82
-13.59
-13.75
-13.49
-13.19
-13.24
-13.96
-15.37
-17.30
-19.48
-21.73
-24.03
-26.63
-29.80
-33.73
-38.30
-43.01
-47.11
-49.78
-50.44
-48.90
-45.41
-40.53
-34.87
-28.87
-22.69
-16.26
-9.42
-2.02
6.01
14.65
23.78
33.16
42.36
50.70
57.32
61.44
62.56
60.65
56.26
50.30
43.80
37.57
32.03
27.16
22.65
18.19
13.65
9.12
4.88
1.15
-2.06
-4.93
-7.70
-10.50
-13.18
-15.40
-16.92
-17.69
-17.97
-18.29
-19.07
-20.59
-22.79
-25.44
-28.27
-31.11
-33.95
-36.90
-40.01
-43.24
-46.33
-48.85
-50.35
-50.41
-48.82
-45.63
-41.04
-35.31
-28.68
-21.30
-13.23
-4.50
4.82
14.67
24.95
35.37
45.47
54.57
61.83
66.53
68.28
67.19
63.90
59.36
54.57
50.28
46.79
44.03
41.61
39.07
36.07
32.46
28.36
24.02
19.72
15.66
11.84
8.15
4.45
0.70
-2.95
-6.27
-9.05
-11.30
-13.28
-15.41
-18.02
-21.23
-24.84
-28.46
-31.72
-34.39
-36.42
-37.87
-38.81
-39.27
-39.28
-38.95
-38.55
-38.43
-38.98
-40.42
-42.65
-45.21
-47.41
-48.44
-47.60
-44.48
-39.00
-31.42
-22.22
-12.01
-1.35
9.31
19.69
29.66
39.15
48.00
55.89
62.33
66.77
68.75
68.12
65.16
60.50
55.05
49.73
45.27
42.07
40.19
39.42
39.45
40.04
41.10
42.73
45.15
48.53
52.97
58.42
64.68
71.39
78.02
84.00
88.88
92.58
95.44
98.09
101.01
104.11
106.57
107.10
104.67
99.22
91.93
84.76
79.42
76.24
73.66
68.75
58.35
40.42
14.74
-17.24
-53.21
-90.84
-128.43
-164.99
-200.07
-233.35
-264.39
-292.17
-314.80
-329.50
-333.08
-322.91
-298.29
-261.16
-216.05
-168.88
-125.29
-89.17
-61.93
-42.59
-28.14
-14.41
2.97
27.13
58.35
92.98
123.69
141.77
140.78
120.04
85.70
48.91
21.41
11.01
19.30
42.41
74.15
109.32
145.19
180.72
214.60
243.78
263.80
270.67
263.01
243.20
216.61
189.67
167.69
153.65
148.10
149.91
157.36
168.71
182.40
196.75
209.69
218.80
221.63
216.26
201.96
179.41
150.50
117.73
83.47
49.48
16.78
-14.34
-43.87
-71.83
-98.02
-121.99
-143.17
-161.32
-176.80
-190.60
-203.95
-217.74
-232.12
-246.38
-259.42
-270.59
-280.38
-290.49
-303.21
-320.23
-341.59
-365.13
-386.91
-402.31
-407.49
-400.53
-381.79
-353.60
-319.08
-280.99
-240.98
-199.41
-155.99
-110.62
-63.95
-17.51
26.74
66.99
102.24
132.27
157.49
178.42
195.41
208.62
218.19
224.50
228.31
230.62
232.28
233.59
234.18
233.13
229.31
221.82
210.12
194.04
173.53
148.51
119.05
85.71
49.96
14.14
-19.11
-47.73
-70.84
-88.83
-102.67
-113.21
-120.56
-124.37
-124.31
-120.64
-114.32
-106.52
-97.98
-88.62
-77.72
-64.40
-48.26
-29.64
-9.53
10.72
29.82
46.62
60.31
70.39
76.82
79.90
80.14
78.11
74.27
68.91
62.16
54.08
44.69
34.16
22.88
11.58
1.26
-7.19
-13.34
-17.57
-21.07
-25.43
-32.08
-41.79
-54.45
-69.19
-84.66
-99.29
-111.50
-119.82
-123.05
-120.55
-112.38
-99.38
-83.03
-65.29
-48.30
-34.08
-24.09
-18.88
-17.90
-19.60
-21.97
-23.28
-22.59
-20.00
-16.25
-12.19
-8.32
-4.69
-1.20
1.95
4.17
4.54
2.46
-1.97
-7.67
-12.93
-16.11
-16.33
-13.83
-9.87
-6.04
-3.52
-2.61
-2.66
-2.71
-1.97
-0.27
1.91
3.84
4.98
5.28
5.13
5.08
5.50
6.42
7.49
8.24
8.32
7.63
6.33
4.81
3.45
2.45
1.82
1.29
0.53
-0.69
-2.33
-4.08
-5.52
-6.37
-6.67
-6.78
-7.14
-8.02
-9.25
-10.44
-11.16
-11.27
-11.03
-10.85
-11.01
-11.35
-11.40
-10.63
-8.86
-6.38
-3.84
-1.81
-0.39
0.80
2.51
5.45
9.85
15.38
21.37
27.15
32.33
36.95
41.29
45.54
49.68
53.36
56.16
57.70
57.86
56.65
54.14
50.27
44.96
38.11
29.92
20.88
11.69
3.10
-4.31
-10.23
-14.66
-17.75
-19.77
-21.01
-21.87
-22.82
-24.45
-27.41
-32.16
-38.76
-46.77
-55.24
-62.97
-68.87
-72.44
-74.09
-75.14
-77.51
-83.07
-92.81
-106.34
-121.84
-136.85
-149.33
-158.78
-166.62
-175.65
-188.72
-207.28
-230.45
-255.11
-277.05
-292.59
-300.07
-300.62
-297.92
-297.07
-302.64
-316.52
-336.46
-356.14
-366.94
-361.08
-334.62
-288.94
-229.93
-165.28
-101.37
-41.18
15.52
70.86
126.95
184.54
242.66
298.31
346.15
378.44
386.26
362.37
304.96
220.20
121.59
25.96
-52.28
-105.78
-135.38
-147.62
-150.32
-149.01
-145.82
-140.82
-134.06
-126.76
-120.79
-117.21
-115.13
-111.84
-104.10
-90.03
-70.06
-46.78
-24.01
-5.00
8.69
17.51
23.34
28.31
33.58
38.84
42.40
41.98
35.84
23.53
6.07
-14.41
-35.46
-55.06
-72.14
-86.56
-98.76
-109.28
-118.38
-125.88
-131.33
-134.27
-134.53
-132.35
-128.36
-123.36
-118.02
-112.71
-107.49
-102.13
-96.44
-90.35
-84.08
-78.14
-73.25
-70.10
-69.23
-70.89
-75.01
-81.31
-89.36
-98.68
-108.81
-119.21
-129.13
-137.59
-143.36
-145.09
-141.41
-131.05
-112.85
-85.70
-48.77
-1.62
55.49
121.73
195.74
275.89
360.53
448.05
536.87
625.21
710.83
790.64
860.91
917.29
955.50
972.19
965.53
935.75
884.94
817.14
738.18
655.61
577.59
511.31
460.78
425.01
398.23
371.75
337.09
288.68
225.30
149.97
68.71
-10.79
-80.62
-133.87
-166.26
-177.29
-170.69
-153.31
-132.78
-115.01
-102.76
-96.07
-93.47
-93.59
-95.86
-100.23
-106.54
-113.91
-120.82
-125.54
-126.73
-123.71
-116.80
-107.03
-95.91
-84.95
-75.33
-67.67
-61.96
-57.90
-55.13
-53.49
-52.98
-53.55
-54.89
-56.42
-57.41
-57.35
-56.12
-53.88
-50.81
-46.69
-40.95
-33.17
-23.90
-15.25
-10.60
-13.51
-25.83
-46.27
-70.06
-90.09
-99.10
-91.95
-66.99
-26.20
25.65
82.43
137.95
187.02
226.29
254.89
274.42
288.13
299.17
308.67
314.54
311.92
295.27
261.09
209.86
146.31
77.71
11.35
-47.77
-97.73
-139.10
-173.35
-201.44
-223.07
-236.99
-241.78
-236.83
-222.95
-202.48
-179.04
-157.00
-140.64
-133.16
-135.39
-144.78
-155.47
-159.76
-150.79
-125.49
-85.69
-37.26
12.20
56.03
90.32
114.51
130.75
142.45
152.58
162.14
169.02
168.16
153.33
120.38
70.56
12.14
-41.19
-75.03
-80.11
-56.28
-12.71
35.85
74.89
95.19
95.08
79.42
56.30
33.36
15.11
2.81
-4.00
-5.76
-1.92
8.59
25.94
48.05
70.37
87.27
94.25
89.63
75.15
55.08
34.16
15.80
0.98
-11.41
-23.26
-35.78
-48.49
-59.49
-66.36
-67.50
-63.00
-54.66
-45.27
-37.40
-32.50
-30.54
-30.35
-30.33
-29.19
-26.36
-21.99
-16.74
-11.43
-6.84
-3.62
-2.34
-3.43
-7.17
-13.71
-22.96
-34.66
-48.23
-62.80
-77.20
-90.12
-100.31
-106.83
-109.20
-107.40
-101.72
-92.60
-80.53
-66.00
-49.60
-32.06
-14.29
2.73
18.06
30.94
40.94
47.97
52.32
54.43
54.81
53.89
51.96
49.10
45.24
40.19
33.74
25.83
16.61
6.47
-4.08
-14.56
-24.69
-34.39
-43.72
-52.67
-61.05
-68.46
-74.44
-78.57
-80.54
-80.14
-77.27
-72.07
-65.15
-57.60
-50.94
-46.63
-45.57
-47.68
-51.88
-56.35
-59.17
-58.82
-54.56
-46.45
-35.23
-22.15
-8.60
4.03
14.59
22.41
27.32
29.66
30.10
29.41
28.24
27.03
25.94
24.84
23.36
20.89
16.73
10.35
1.66
-8.76
-19.75
-29.90
-37.97
-43.34
-46.07
-46.77
-46.18
-44.93
-43.38
-41.74
-40.16
-38.75
-37.56
-36.47
-35.22
-33.47
-30.97
-27.62
-23.50
-18.81
-13.77
-8.67
-3.79
0.57
4.11
6.66
8.22
8.95
9.24
9.54
10.35
12.15
15.21
19.49
24.48
29.38
33.21
35.24
35.23
33.48
30.73
27.80
25.29
23.45
22.20
21.20
20.00
18.05
14.79
9.74
2.77
-5.73
-14.84
-23.34
-30.17
-34.85
-37.62
-39.23
-40.62
-42.47
-45.06
-48.32
-52.03
-56.05
-60.42
-65.24
-70.64
-76.80
-83.88
-92.13
-101.69
-112.51
-124.19
-136.02
-147.09
-156.48
-163.43
-167.35
-167.82
-164.55
-157.68
-148.07
-137.59
-128.97
-125.04
-127.65
-136.77
-150.31
-164.83
-177.01
-184.72
-187.51
-186.08
-181.48
-174.41
-165.43
-155.42
-145.86
-138.40
-133.84
-131.22
-127.78
-119.91
-104.83
-81.77
-52.02
-17.74
19.59
59.73
102.68
146.76
187.52
218.31
232.91
228.66
208.29
179.16
150.13
127.79
114.04
106.16
99.15
88.71
73.19
53.66
32.47
11.66
-7.81
-25.74
-41.74
-54.66
-62.82
-64.95
-61.46
-55.03
-49.85
-49.73
-56.20
-67.28
-78.03
-82.55
-76.74
-60.44
-37.79
-15.53
-0.13
5.32
2.71
-1.61
0.62
16.17
47.66
92.47
143.81
193.31
233.54
259.82
270.14
264.35
243.12
207.92
161.76
110.12
60.84
22.44
1.51
0.23
15.59
40.63
67.31
89.49
104.79
114.81
124.00
137.59
159.50
190.49
227.04
261.72
284.92
287.51
263.62
212.49
138.94
52.44
-34.89
-110.48
-163.79
-188.06
-181.57
-147.94
-95.38
-34.93
22.01
66.04
91.63
97.75
87.32
66.04
40.49
16.37
-2.75
-15.66
-22.95
-25.81
-25.00
-20.80
-13.31
-3.21
7.89
17.65
23.66
24.20
18.78
8.11
-6.32
-22.78
-39.93
-56.94
-73.43
-89.16
-103.74
-116.58
-127.13
-135.20
-141.18
-145.94
-150.45
-155.27
-160.19
-164.32
-166.41
-165.53
-161.51
-155.00
-147.21
-139.28
-131.86
-124.85
-117.56
-109.08
-98.60
-85.72
-70.48
-53.22
-34.52
-15.01
4.61
23.59
41.14
56.51
69.17
79.02
86.44
92.28
97.60
103.31
109.89
117.23
124.76
131.63
137.03
140.37
141.37
139.95
136.13
129.93
121.40
110.77
98.48
85.28
72.09
59.78
48.98
39.89
32.39
26.13
20.72
15.83
11.21
6.68
2.18
-2.21
-6.18
-9.34
-11.23
-11.60
-10.41
-7.82
-4.03
0.82
6.59
13.04
19.64
25.58
30.04
32.46
32.86
31.78
29.94
27.87
25.69
23.12
19.88
16.05
12.19
9.14
7.62
7.90
9.72
12.55
15.93
19.66
23.78
28.26
32.76
36.59
38.90
38.95
36.50
31.95
26.37
21.27
18.27
18.70
23.22
31.49
42.15
53.06
61.87
66.88
67.80
65.95
63.76
63.78
67.26
73.37
79.47
81.95
77.70
65.28
45.19
19.43
-9.22
-37.58
-62.43
-81.19
-92.90
-98.80
-102.15
-106.58
-114.33
-124.93
-135.79
-143.94
-148.00
-148.92
-148.83
-148.99
-148.43
-144.24
-133.72
-116.71
-96.49
-78.49
-67.64
-65.78
-71.00
-78.90
-84.91
-86.71
-85.45
-84.91
-89.54
-102.25
-122.97
-148.55
-173.61
-191.76
-196.79
-183.68
-150.05
-97.63
-33.09
32.64
87.00
119.61
125.68
107.84
75.41
41.54
19.08
16.54
35.09
67.56
100.34
117.98
109.36
72.53
16.35
-42.84
-87.50
-105.44
-93.27
-55.25
0.17
63.55
125.56
176.55
206.81
209.39
184.24
140.89
96.43
68.55
66.86
87.60
115.07
129.52
116.96
75.56
15.55
-46.76
-96.70
-126.54
-136.15
-130.01
-113.48
-90.19
-61.81
-29.27
6.13
42.43
77.57
110.22
139.81
166.60
191.24
214.47
237.25
260.98
287.63
319.24
356.91
399.55
443.18
481.46
507.43
515.87
505.10
477.38
437.81
392.37
346.02
301.98
261.78
225.98
194.54
166.90
141.52
116.00
87.72
54.84
17.18
-23.63
-64.76
-103.02
-136.21
-163.79
-186.90
-207.65
-227.88
-247.85
-265.69
-277.89
-280.76
-272.40
-253.97
-229.53
-204.55
-183.59
-168.45
-157.76
-148.07
-135.97
-119.97
-101.30
-83.10
-68.70
-59.86
-55.89
-53.77
-49.35
-38.86
-20.60
4.03
30.57
52.69
64.45
62.62
48.31
26.78
5.54
-8.49
-11.46
-3.57
11.69
29.54
45.75
57.73
64.37
65.44
61.08
51.68
38.29
22.71
7.30
-5.58
-14.40
-18.97
-20.35
-20.29
-20.47
-21.86
-24.55
-27.88
-30.85
-32.56
-32.46
-30.57
-27.52
-24.58
-23.44
-25.87
-33.21
-45.93
-63.53
-84.64
-107.56
-130.73
-153.05
-173.97
-193.13
-210.00
-223.53
-232.13
-233.91
-227.18
-211.06
-185.93
-153.56
-116.91
-79.49
-44.67
-14.96
8.22
24.47
34.03
37.50
35.75
30.11
22.43
14.93
9.71
8.03
10.04
14.90
21.54
29.32
38.29
48.79
60.64
72.64
82.68
88.72
89.95
87.44
83.74
81.61
82.40
85.34
87.80
86.65
79.81
67.12
50.14
31.40
13.66
-0.38
-8.28
-8.44
-1.42
9.00
15.99
12.00
-7.39
-40.26
-77.95
-108.22
-120.63
-111.35
-84.58
-50.17
-18.48
4.09
16.88
23.58
28.94
35.92
44.77
54.06
62.21
68.58
73.25
76.09
76.12
71.84
62.24
48.03
32.09
18.56
11.31
12.09
19.89
31.33
42.15
48.83
49.77
45.34
37.37
28.20
19.87
13.75
10.40
9.67
10.90
12.92
14.12
12.68
6.93
-4.10
-20.35
-40.59
-62.67
-84.09
-102.63
-116.78
-126.01
-130.64
-131.64
-130.22
-127.45
-124.08
-120.27
-115.90
-110.72
-104.65
-97.83
-90.60
-83.24
-75.81
-68.23
-60.42
-52.52
-44.86
-37.83
-31.47
-25.33
-18.52
-10.11
0.24
11.98
23.73
33.71
40.59
44.00
44.72
44.24
44.10
45.24
47.69
50.69
53.24
54.48
54.02
51.88
48.34
43.68
38.17
32.04
25.49
18.70
11.77
4.68
-2.75
-10.67
-19.12
-27.82
-36.13
-43.16
-47.93
-49.68
-48.16
-43.85
-37.96
-32.17
-28.28
-27.58
-30.39
-35.91
-42.42
-47.86
-50.54
-49.71
-45.65
-39.45
-32.53
-26.14
-21.18
-18.11
-17.04
-17.76
-19.80
-22.45
-24.90
-26.42
-26.54
-25.14
-22.45
-18.97
-15.38
-12.48
-11.06
-11.78
-14.97
-20.44
-27.58
-35.49
-43.34
-50.60
-57.10
-62.93
-68.30
-73.31
-77.85
-81.59
-84.09
-84.97
-84.12
-81.81
-78.59
-75.09
-71.72
-68.57
-65.47
-62.27
-59.02
-55.98
-53.35
-51.05
-48.52
-45.00
-39.87
-33.12
-25.39
-17.75
-11.25
-6.42
-3.03
-0.15
3.43
8.79
16.45
26.20
37.16
48.02
57.43
64.34
68.22
69.10
67.50
64.20
60.08
55.93
52.40
50.05
49.37
50.79
54.44
60.00
66.39
71.99
75.09
74.62
70.60
64.21
57.13
50.72
45.35
40.29
34.27
26.27
16.12
4.54
-7.27
-18.23
-27.77
-35.80
-42.40
-47.59
-51.20
-53.09
-53.34
-52.32
-50.52
-48.44
-46.39
-44.49
-42.75
-40.98
-38.75
-35.31
-29.84
-21.78
-11.27
0.73
12.64
22.74
29.79
33.43
34.22
33.38
32.21
31.62
31.90
32.69
33.26
33.04
31.86
30.19
28.85
28.70
30.29
33.67
38.49
44.13
49.91
55.00
58.40
58.95
55.61
47.88
36.12
21.71
6.58
-7.35
-19.04
-28.53
-36.86
-45.35
-54.74
-64.76
-74.18
-81.45
-85.51
-86.22
-84.29
-80.81
-76.68
-72.40
-68.02
-63.30
-57.95
-51.51
-43.44
-33.21
-20.66
-6.38
8.10
20.71
29.46
33.22
32.16
27.70
21.92
16.95
14.30
14.59
17.49
21.88
26.04
27.83
25.03
15.91
-0.03
-21.41
-44.87
-65.72
-79.19
-82.00
-73.41
-55.38
-31.69
-6.49
17.00
37.12
53.51
66.39
75.68
80.68
80.32
73.79
61.33
44.46
25.77
8.12
-6.41
-17.24
-25.41
-32.99
-42.15
-54.04
-68.24
-82.94
-95.71
-104.43
-108.10
-107.05
-102.60
-96.47
-90.07
-84.23
-79.19
-74.81
-71.04
-68.02
-65.92
-64.75
-63.97
-62.43
-58.77
-52.03
-41.99
-28.86
-12.77
6.44
28.57
52.12
73.65
88.41
92.25
83.92
66.46
46.50
31.74
27.52
34.53
48.83
64.10
74.81
78.62
76.72
72.28
68.11
65.06
62.09
57.50
50.92
44.21
40.81
43.83
54.09
69.38
85.45
97.95
104.32
104.57
100.64
95.11
89.80
85.16
80.32
73.71
63.95
50.55
34.39
17.69
3.34
-6.12
-9.43
-7.04
-0.83
6.84
13.98
19.51
23.27
25.48
26.34
25.75
23.49
19.50
14.11
7.91
1.59
-4.37
-9.82
-14.87
-19.68
-24.27
-28.47
-32.07
-35.04
-37.69
-40.62
-44.60
-50.31
-58.15
-68.15
-79.95
-92.80
-105.75
-117.68
-127.50
-134.37
-137.77
-137.57
-133.95
-127.36
-118.43
-108.03
-97.23
-87.17
-78.80
-72.59
-68.39
-65.61
-63.42
-61.05
-57.92
-53.63
-47.89
-40.53
-31.76
-22.25
-13.09
-5.50
-0.37
2.21
3.00
3.32
4.52
7.45
12.32
18.81
26.39
34.62
43.27
52.31
61.74
71.43
81.04
90.07
97.96
104.18
108.38
110.29
109.70
106.39
100.22
91.35
80.44
68.80
58.11
49.98
45.37
44.18
45.26
46.79
46.81
43.85
37.22
27.06
14.27
0.27
-13.32
-24.97
-33.48
-38.29
-39.51
-37.74
-33.83
-28.47
-22.04
-14.60
-6.13
3.26
13.14
22.80
31.52
38.72
44.18
47.93
50.19
51.18
51.04
49.85
47.71
44.73
40.94
36.27
30.65
24.18
17.32
10.86
5.64
2.19
0.48
-0.15
-0.64
-1.81
-3.97
-6.66
-8.70
-8.61
-5.22
1.80
11.57
22.27
31.73
38.43
42.07
43.63
44.63
46.08
47.78
48.30
45.84
39.22
28.50
14.78
-0.51
-16.39
-32.52
-48.83
-64.91
-79.67
-91.53
-99.12
-101.90
-100.39
-95.72
-89.01
-80.75
-70.87
-59.00
-45.14
-29.99
-14.89
-1.34
9.69
18.09
24.65
30.50
36.36
41.95
45.86
46.17
41.57
32.38
21.01
11.38
7.45
11.53
23.09
38.77
53.54
62.40
61.98
51.21
31.17
4.27
-26.28
-56.81
-83.24
-101.49
-108.54
-103.87
-90.62
-75.32
-65.99
-68.97
-86.34
-115.14
-149.08
-181.92
-210.63
-236.56
-263.81
-295.73
-331.86
-366.98
-393.15
-403.56
-395.85
-373.19
-342.31
-309.81
-278.99
-248.90
-215.96
-176.79
-130.70
-80.08
-28.84
19.91
65.43
108.93
151.85
193.81
231.77
260.84
276.28
275.74
260.46
234.90
205.28
177.60
156.07
142.42
136.10
135.15
137.16
140.01
142.24
143.08
142.40
140.82
139.86
142.00
150.26
167.36
194.52
230.64
272.44
315.23
354.38
386.54
410.21
425.67
434.62
439.73
444.00
449.61
456.54
461.62
458.91
441.62
405.12
349.22
278.75
201.70
126.12
57.43
-2.44
-54.04
-98.45
-135.89
-165.64
-187.06
-200.58
-208.00
-211.77
-213.88
-215.11
-215.11
-212.84
-207.65
-199.76
-190.35
-181.13
-173.60
-168.41
-165.14
-162.49
-158.82
-152.94
-144.63
-134.67
-124.54
-115.75
-109.32
-105.48
-103.86
-103.86
-105.19
-108.03
-112.85
-119.94
-129.04
-139.12
-148.62
-156.05
-160.51
-162.10
-161.82
-161.09
-161.16
-162.61
-165.24
-168.32
-170.92
-172.29
-172.09
-170.34
-167.28
-163.19
-158.23
-152.37
-145.49
-137.43
-128.25
-118.37
-108.56
-99.88
-93.27
-89.22
-87.47
-86.97
-86.29
-84.08
-79.49
-72.38
-63.14
-52.37
-40.63
-28.34
-15.77
-3.03
9.93
23.44
38.00
54.04
71.61
90.20
108.86
126.64
143.05
158.23
172.82
187.24
201.23
213.69
223.09
228.04
227.74
221.82
209.75
190.58
163.09
126.50
81.39
29.86
-25.40
-82.70
-142.38
-206.32
-275.87
-349.19
-420.17
-479.52
-518.32
-531.71
-520.94
-492.40
-454.31
-413.40
-373.54
-336.89
-306.09
-285.25
-278.51
-287.04
-306.59
-327.72
-338.90
-331.17
-301.44
-252.76
-191.98
-126.03
-59.16
7.59
74.80
142.18
206.93
263.87
307.40
334.09
344.55
343.67
338.60
335.96
339.11
347.54
358.02
367.18
373.89
380.12
389.84
406.53
430.64
458.50
483.23
497.25
495.25
476.16
443.46
403.46
362.51
324.87
292.08
263.91
239.97
220.75
207.41
200.47
198.56
198.18
194.89
185.21
168.34
146.64
124.86
108.06
99.41
98.71
102.27
104.33
99.40
84.55
60.43
30.75
0.46
-26.39
-47.85
-64.08
-76.26
-85.35
-91.45
-93.94
-92.45
-87.57
-81.02
-75.16
-71.94
-72.08
-74.88
-78.60
-81.41
-82.23
-81.09
-78.93
-76.85
-75.29
-73.64
-70.37
-63.70
-52.39
-36.23
-16.15
6.17
28.82
50.11
68.78
84.07
95.62
103.37
107.51
108.44
106.68
102.80
97.26
90.37
82.30
73.21
63.33
53.05
42.89
33.39
24.85
17.31
10.48
3.96
-2.52
-8.94
-15.02
-20.32
-24.56
-27.76
-30.26
-32.57
-35.09
-38.01
-41.20
-44.51
-47.82
-51.14
-54.53
-57.90
-60.99
-63.32
-64.44
-64.04
-62.10
-58.77
-54.35
-49.13
-43.41
-37.48
-31.61
-25.98
-20.57
-15.18
-9.61
-3.81
1.91
6.98
10.71
12.60
12.55
10.82
7.93
4.42
0.75
-2.70
-5.57
-7.52
-8.34
-8.04
-6.86
-5.28
-3.75
-2.57
-1.72
-0.95
0.06
1.57
3.61
6.00
8.36
10.25
11.25
11.06
9.57
6.94
3.55
-0.06
-3.38
-6.06
-8.10
-9.81
-11.66
-14.02
-17.00
-20.21
-22.94
-24.38
-23.94
-21.54
-17.62
-13.05
-8.87
-5.99
-4.97
-5.89
-8.36
-11.61
-14.74
-16.98
-17.91
-17.55
-16.35
-14.95
-13.92
-13.52
-13.62
-13.77
-13.45
-12.24
-10.08
-7.27
-4.36
-2.12
-1.16
-1.84
-4.07
-7.28
-10.66
-13.36
-14.75
-14.63
-13.28
-11.33
-9.54
-8.55
-8.61
-9.58
-11.00
-12.28
-12.99
-12.97
-12.36
-11.48
-10.66
-10.05
-9.63
-9.28
-8.91
-8.55
-8.35
-8.52
-9.24
-10.47
-12.01
-13.55
-14.76
-15.46
-15.60
-15.34
-14.90
-14.49
-14.26
-14.29
-14.58
-15.07
-15.70
-16.34
-16.84
-17.01
-16.80
-16.37
-16.15
-16.83
-19.14
-23.49
-29.79
-37.23
-44.50
-50.08
-52.68
-51.60
-46.86
-39.11
-29.33
-18.58
-7.79
2.39
11.46
19.13
25.24
29.77
32.83
34.65
35.53
35.67
35.22
34.17
32.49
30.16
27.23
23.82
20.15
16.45
13.01
10.15
8.16
7.24
7.43
8.57
10.29
12.15
13.67
14.45
14.23
12.89
10.43
7.00
2.76
-2.07
-7.28
-12.68
-18.08
-23.29
-28.10
-32.26
-35.57
-37.91
-39.27
-39.79
-39.71
-39.34
-38.97
-38.77
-38.71
-38.59
-38.08
-36.85
-34.66
-31.50
-27.52
-22.97
-18.01
-12.71
-7.05
-1.06
5.06
10.95
16.14
20.26
23.17
24.95
25.80
25.93
25.45
24.49
23.28
22.17
21.52
21.49
21.97
22.54
22.65
21.92
20.27
17.96
15.37
12.77
10.18
7.34
3.92
-0.36
-5.55
-11.52
-18.04
-24.86
-31.72
-38.28
-44.19
-49.01
-52.45
-54.41
-55.04
-54.60
-53.34
-51.30
-48.32
-44.13
-38.60
-31.88
-24.35
-16.64
-9.29
-2.72
2.90
7.64
11.74
15.53
19.38
23.56
28.16
32.99
37.62
41.49
44.10
45.19
44.87
43.50
41.59
39.58
37.67
35.81
33.76
31.16
27.72
23.26
17.83
11.70
5.36
-0.65
-5.81
-9.84
-12.75
-14.78
-16.28
-17.51
-18.59
-19.44
-19.96
-20.14
-20.05
-19.86
-19.68
-19.47
-19.10
-18.40
-17.27
-15.79
-14.05
-12.18
-10.25
-8.31
-6.43
-4.75
-3.43
-2.56
-2.13
-1.93
-1.69
-1.20
-0.35
0.77
1.89
2.63
2.59
1.41
-1.13
-5.03
-10.05
-15.77
-21.61
-26.99
-31.47
-34.83
-37.02
-38.20
-38.61
-38.49
-38.12
-37.72
-37.51
-37.63
-38.15
-38.99
-40.00
-40.93
-41.56
-41.64
-41.01
-39.53
-37.11
-33.74
-29.49
-24.53
-19.18
-13.85
-8.91
-4.64
-1.08
1.97
4.94
8.32
12.50
17.66
23.66
30.08
36.27
41.51
45.19
46.95
46.82
45.22
42.89
40.66
39.28
39.19
40.55
43.15
46.57
50.23
53.39
55.35
55.54
53.75
50.18
45.46
40.41
35.76
31.93
28.95
26.59
24.59
22.86
21.47
20.65
20.53
21.11
22.21
23.64
25.16
26.61
27.79
28.50
28.48
27.57
25.71
23.04
19.79
16.27
12.69
9.13
5.51
1.63
-2.75
-7.74
-13.26
-18.97
-24.48
-29.48
-34.00
-38.38
-43.10
-48.48
-54.38
-60.15
-64.80
-67.46
-67.70
-65.74
-62.37
-58.56
-55.10
-52.30
-49.97
-47.70
-45.20
-42.60
-40.49
-39.64
-40.59
-43.30
-47.10
-51.07
-54.58
-57.78
-61.56
-66.98
-74.51
-83.36
-91.62
-96.85
-96.90
-90.72
-78.24
-60.07
-37.19
-10.89
17.05
44.15
67.64
85.43
96.95
103.48
107.40
110.94
114.88
118.46
120.26
119.63
117.50
115.99
116.92
119.99
122.07
117.76
101.22
68.55
19.47
-41.86
-107.46
-167.36
-212.09
-235.00
-233.75
-210.71
-171.72
-124.13
-74.67
-27.75
15.00
54.02
90.20
123.51
152.36
174.14
186.53
189.02
183.59
174.24
165.49
160.49
159.34
159.01
154.92
143.57
125.05
104.25
89.84
91.27
114.65
159.31
216.88
273.35
313.61
326.46
307.64
259.61
188.92
103.14
9.05
-87.00
-178.08
-256.46
-315.33
-351.44
-367.21
-370.34
-370.82
-376.37
-389.16
-405.26
-417.18
-417.66
-403.06
-374.59
-337.32
-297.69
-261.04
-230.00
-204.32
-181.74
-159.45
-135.43
-108.99
-80.60
-51.20
-21.40
8.67
39.25
70.47
102.00
133.05
162.26
187.59
205.85
212.89
204.69
179.27
138.55
88.87
39.44
-0.71
-25.82
-35.12
-32.23
-22.94
-12.69
-5.04
-1.62
-3.04
-9.62
-21.53
-38.28
-58.20
-78.52
-96.14
-108.73
-115.49
-117.31
-116.48
-115.60
-116.60
-120.15
-125.58
-131.48
-136.48
-139.71
-140.95
-140.29
-137.62
-132.54
-124.54
-113.42
-99.64
-84.39
-69.18
-55.28
-43.25
-32.65
-22.27
-10.67
3.22
19.62
37.68
55.72
71.68
83.75
90.87
93.01
91.14
86.77
81.59
76.94
73.50
71.26
69.68
67.93
65.38
61.80
57.49
53.18
49.68
47.52
46.60
46.18
45.07
42.01
36.16
27.32
15.98
3.10
-10.21
-23.03
-34.78
-45.26
-54.61
-63.22
-71.60
-80.33
-89.87
-100.39
-111.56
-122.42
-131.39
-136.68
-136.66
-130.55
-118.78
-103.04
-85.80
-69.54
-56.00
-45.69
-37.91
-31.19
-24.00
-15.19
-4.33
8.35
22.25
36.67
51.13
65.40
79.41
93.07
106.03
117.62
127.14
134.22
139.14
142.98
147.21
153.02
160.72
169.54
177.94
184.29
187.53
187.60
185.27
181.66
177.68
173.71
169.60
165.00
159.64
153.60
147.25
141.07
135.38
130.10
124.59
117.78
108.43
95.51
78.59
58.13
35.40
12.11
-10.25
-31.06
-50.89
-71.34
-94.28
-120.83
-150.52
-181.15
-209.38
-231.95
-246.93
-254.57
-257.28
-258.74
-262.68
-271.46
-285.10
-301.00
-314.33
-319.43
-311.45
-287.93
-250.06
-202.96
-154.79
-114.55
-88.93
-79.49
-81.47
-85.18
-79.57
-56.47
-13.55
45.39
112.73
180.62
243.89
301.05
353.27
402.11
447.58
487.38
517.59
534.06
533.80
516.12
483.09
439.50
391.91
347.05
310.25
284.06
267.93
258.93
253.13
246.90
237.61
223.82
204.90
180.76
152.03
120.39
88.72
60.63
39.21
25.56
18.09
12.81
4.92
-9.18
-30.56
-57.26
-85.31
-110.28
-128.95
-140.19
-144.87
-145.02
-142.53
-138.41
-132.59
-124.65
-114.77
-104.39
-96.08
-92.62
-95.79
-105.44
-119.49
-134.82
-148.55
-159.06
-166.48
-172.26
-178.20
-185.60
-194.56
-203.87
-211.25
-213.81
-208.51
-192.65
-164.51
-124.34
-75.06
-22.49
25.65
61.76
80.79
81.83
68.29
46.37
22.80
3.12
-9.03
-11.32
-2.05
20.05
54.99
100.41
151.24
200.28
240.10
265.12
273.09
265.45
246.59
222.09
196.88
173.56
151.84
129.05
101.68
67.31
26.02
-19.31
-64.00
-103.16
-133.27
-152.76
-161.55
-160.22
-149.29
-129.31
-101.47
-68.17
-33.09
-0.26
27.06
47.43
61.47
71.25
79.28
87.49
96.75
106.93
117.25
126.70
134.28
139.16
141.01
140.38
139.06
140.00
146.51
161.00
183.71
212.09
241.30
265.59
280.26
283.07
274.70
258.02
236.63
213.46
190.08
166.75
143.12
118.92
94.22
69.21
43.84
17.85
-8.72
-34.92
-58.90
-78.62
-93.13
-103.47
-112.41
-123.17
-137.65
-155.40
-173.88
-189.74
-200.36
-204.75
-203.34
-197.24
-187.39
-174.49
-159.17
-142.40
-125.45
-109.51
-95.27
-82.75
-71.45
-60.71
-50.09
-39.53
-29.29
-19.82
-11.60
-5.02
-0.35
2.35
3.30
2.98
2.14
1.56
1.87
3.28
5.53
8.01
10.10
11.45
12.18
12.66
13.18
13.69
13.78
13.00
11.21
8.70
5.91
2.92
-1.00
-7.17
-16.80
-30.11
-45.92
-61.87
-75.48
-85.32
-91.57
-95.75
-99.79
-104.82
-110.64
-115.91
-119.03
-119.09
-116.42
-112.46
-109.04
-107.55
-108.30
-110.38
-111.98
-110.95
-105.43
-94.36
-77.77
-56.69
-32.87
-8.28
15.32
36.57
54.57
68.67
78.49
83.86
85.03
82.64
77.62
70.89
63.17
54.92
46.44
38.08
30.29
23.36
17.18
10.98
3.51
-6.49
-19.64
-35.58
-52.89
-69.57
-83.71
-93.91
-99.50
-100.38
-96.75
-88.98
-77.67
-63.83
-48.93
-34.66
-22.38
-12.67
-5.20
1.04
7.04
13.19
19.11
23.86
26.61
27.16
26.11
24.53
23.37
22.87
22.49
21.10
17.56
11.19
2.11
-8.88
-20.41
-30.80
-38.28
-41.26
-38.63
-30.20
-16.72
0.01
17.65
33.73
46.26
54.03
56.78
55.18
50.51
44.26
37.55
30.82
23.79
15.81
6.28
-4.88
-17.25
-30.09
-42.82
-55.16
-67.03
-78.20
-88.04
-95.48
-99.46
-99.47
-95.83
-89.64
-82.21
-74.56
-67.05
-59.41
-51.12
-41.72
-30.92
-18.57
-4.57
11.05
27.75
44.35
59.01
69.73
74.92
74.00
67.38
56.17
41.65
24.84
6.48
-12.73
-31.80
-49.29
-63.57
-73.24
-77.59
-76.87
-72.08
-64.58
-55.61
-45.93
-35.89
-25.67
-15.66
-6.59
0.60
5.02
6.35
5.00
2.20
-0.36
-1.03
1.20
6.33
13.27
20.28
25.64
28.25
27.92
25.16
20.73
15.23
9.00
2.22
-4.81
-11.61
-17.61
-22.46
-26.16
-29.05
-31.56
-33.93
-36.05
-37.44
-37.48
-35.68
-31.90
-26.49
-20.28
-14.34
-9.68
-6.87
-5.95
-6.45
-7.73
-9.36
-11.27
-13.73
-17.08
-21.39
-26.35
-31.33
-35.56
-38.50
-39.81
-39.40
-37.29
-33.61
-28.61
-22.77
-16.79
-11.34
-6.75
-2.76
1.51
7.23
15.32
25.99
38.49
51.24
62.34
70.08
73.51
72.65
68.35
61.85
54.30
46.29
37.82
28.51
18.06
6.63
-4.98
-15.60
-24.16
-30.12
-33.65
-35.46
-36.35
-36.79
-36.78
-36.07
-34.49
-32.36
-30.45
-29.79
-31.09
-34.38
-38.93
-43.34
-46.09
-45.94
-42.22
-35.10
-25.57
-15.19
-5.68
1.53
5.76
7.08
6.21
4.06
1.38
-1.41
-4.13
-6.67
-8.70
-9.84
-9.82
-8.68
-6.73
-4.47
-2.23
-0.13
1.96
4.14
6.25
7.69
7.75
5.92
2.38
-1.90
-5.46
-7.09
-6.42
-4.12
-1.52
0.15
0.27
-1.03
-3.24
-5.98
-9.23
-13.05
-17.23
-20.95
-22.89
-21.85
-17.31
-9.68
-0.15
9.84
19.09
26.87
32.93
37.23
39.84
40.76
39.83
36.82
31.35
23.20
12.40
-0.54
-14.61
-28.56
-41.34
-52.44
-61.95
-70.37
-78.00
-84.71
-89.83
-92.58
-92.58
-90.09
-85.82
-80.49
-74.44
-67.50
-59.42
-50.26
-40.61
-31.39
-23.33
-16.50
-10.17
-3.20
5.40
15.90
27.79
40.08
51.64
61.75
70.17
77.06
82.75
87.46
91.09
93.31
93.65
91.70
87.38
80.89
72.70
63.43
53.67
43.95
34.66
26.09
18.44
11.84
6.40
2.13
-1.05
-3.38
-5.16
-6.65
-8.00
-9.16
-9.87
-9.82
-8.80
-6.80
-4.05
-1.02
1.72
3.55
3.92
2.45
-0.94
-6.01
-12.28
-19.20
-26.37
-33.63
-40.96
-48.29
-55.26
-61.21
-65.32
-66.90
-65.64
-61.71
-55.62
-48.00
-39.30
-29.73
-19.23
-7.76
4.63
17.54
30.28
41.95
51.78
59.28
64.41
67.57
69.36
70.36
70.90
71.05
70.68
69.55
67.54
64.68
61.08
56.90
52.35
47.63
43.00
38.69
34.94
31.82
29.20
26.90
24.63
22.25
19.64
16.75
13.53
9.97
6.10
2.01
-2.08
-6.07
-9.88
-13.61
-17.38
-21.24
-25.06
-28.48
-30.99
-32.11
-31.45
-28.84
-24.41
-18.50
-11.61
-4.25
3.11
10.14
16.55
22.13
26.70
30.17
32.54
33.99
34.80
35.28
35.69
36.09
36.31
35.97
34.59
31.71
27.27
21.67
15.80
10.80
7.55
6.26
6.29
6.29
4.80
1.06
-4.70
-11.15
-16.27
-17.99
-15.14
-7.98
1.41
9.57
12.69
8.14
-4.33
-22.08
-40.35
-53.94
-59.18
-55.45
-45.21
-32.90
-23.12
-19.01
-21.47
-29.43
-40.73
-52.98
-64.27
-73.46
-80.16
-84.64
-87.57
-89.89
-92.66
-96.86
-103.07
-111.46
-121.52
-132.11
-141.64
-148.34
-150.62
-147.50
-138.85
-125.45
-108.75
-90.37
-71.63
-53.08
-34.46
-15.01
5.97
28.59
52.04
74.73
94.77
110.57
121.42
127.49
129.66
128.94
126.00
121.07
113.99
104.68
93.46
81.14
68.84
57.55
47.79
39.43
31.91
24.72
17.79
11.66
7.17
5.06
5.44
7.67
10.42
12.16
11.56
7.99
1.71
-6.25
-14.32
-21.01
-25.38
-27.30
-27.32
-26.36
-25.28
-24.70
-25.03
-26.64
-30.01
-35.65
-43.74
-53.77
-64.53
-74.39
-81.78
-85.70
-85.95
-83.01
-77.74
-71.01
-63.41
-55.19
-46.28
-36.46
-25.54
-13.53
-0.66
12.62
25.79
38.33
49.87
60.13
68.90
75.93
80.86
83.32
83.06
80.19
75.25
69.18
62.98
57.35
52.40
47.52
41.76
34.24
24.72
13.80
2.70
-7.22
-15.15
-21.34
-27.04
-34.06
-43.92
-57.10
-72.74
-88.99
-103.87
-116.16
-125.97
-134.54
-143.61
-154.45
-167.41
-182.04
-197.51
-213.06
-227.77
-240.00
-247.22
-246.98
-238.63
-224.62
-210.10
-200.48
-197.93
-199.33
-196.98
-182.35
-150.71
-103.82
-49.05
4.74
51.73
91.33
126.95
162.35
198.53
233.18
262.96
286.36
305.08
322.60
340.89
357.73
366.40
357.99
325.27
265.80
183.23
86.39
-12.77
-101.88
-170.60
-212.55
-226.61
-216.85
-190.96
-157.52
-123.30
-91.50
-61.90
-32.17
0.05
35.85
74.11
111.51
142.98
162.78
166.06
150.50
117.51
71.96
20.82
-29.00
-72.33
-106.64
-131.64
-148.43
-158.73
-164.44
-167.50
-169.73
-172.34
-175.47
-178.00
-177.80
-172.48
-160.28
-140.80
-115.25
-86.06
-56.13
-27.82
-2.21
21.15
43.90
67.95
94.47
123.15
152.12
178.54
199.53
213.04
218.27
215.63
206.34
192.11
174.89
156.82
140.10
126.63
117.53
112.73
111.04
110.58
109.52
106.72
101.98
95.82
88.98
81.85
74.24
65.41
54.46
40.68
23.85
4.31
-17.22
-39.71
-62.07
-83.27
-102.30
-118.39
-131.10
-140.33
-146.39
-149.78
-151.00
-150.37
-147.98
-143.73
-137.48
-129.20
-119.08
-107.62
-95.63
-84.07
-73.82
-65.39
-58.71
-53.22
-48.18
-42.96
-37.18
-30.63
-22.91
-13.30
-0.94
14.64
33.08
53.01
72.45
89.56
103.29
113.61
121.26
127.11
131.61
134.64
135.63
134.08
129.89
123.51
115.85
107.82
100.11
92.86
85.68
77.87
68.77
58.05
45.84
32.67
19.14
5.82
-6.97
-18.93
-29.73
-38.94
-46.15
-51.18
-54.27
-56.01
-57.20
-58.50
-60.14
-61.88
-63.03
-62.66
-59.85
-53.86
-44.29
-31.15
-14.84
3.88
24.06
44.74
65.04
84.29
101.91
117.44
130.46
140.59
147.60
151.48
152.41
150.70
146.66
140.61
132.87
123.79
113.83
103.50
93.20
83.21
73.66
64.54
55.85
47.59
39.71
32.09
24.49
16.59
8.13
-0.99
-10.60
-20.37
-29.88
-38.75
-46.76
-53.82
-60.02
-65.39
-69.96
-73.65
-76.39
-78.13
-78.99
-79.16
-78.89
-78.40
-77.80
-77.14
-76.40
-75.53
-74.33
-72.42
-69.20
-63.92
-55.88
-44.64
-30.22
-13.06
5.94
25.73
45.30
63.94
81.28
97.37
112.51
127.05
141.14
154.62
167.14
178.17
187.26
194.01
198.02
198.87
196.08
189.33
178.62
164.50
148.04
130.56
113.47
98.00
85.21
75.96
70.98
70.72
75.10
83.41
94.18
105.54
115.59
122.92
126.94
127.91
126.70
124.40
121.93
119.81
118.17
116.90
115.80
114.69
113.46
111.90
109.69
106.39
101.56
94.95
86.57
76.70
65.78
54.37
43.05
32.47
23.31
16.18
11.53
9.40
9.37
10.56
11.76
11.72
9.42
4.27
-3.68
-13.76
-24.76
-35.14
-43.32
-47.91
-48.00
-43.37
-34.60
-23.10
-10.89
-0.25
6.89
9.47
7.52
2.12
-5.18
-12.94
-20.45
-27.79
-35.60
-44.57
-55.05
-66.85
-79.29
-91.40
-101.98
-109.64
-112.83
-110.18
-100.95
-85.62
-66.10
-45.42
-26.87
-12.93
-4.67
-1.56
-2.10
-4.62
-7.94
-11.61
-15.77
-20.91
-27.61
-36.46
-47.96
-62.30
-79.04
-96.92
-113.94
-127.78
-136.39
-138.53
-134.07
-123.86
-109.52
-92.98
-76.10
-60.25
-46.09
-33.33
-21.05
-8.16
5.89
20.63
34.50
45.43
51.65
52.51
48.77
42.30
35.33
29.63
25.98
24.14
23.22
22.27
20.64
18.10
14.78
10.83
6.30
1.16
-4.58
-10.69
-16.78
-22.44
-27.55
-32.42
-37.79
-44.42
-52.72
-62.30
-72.06
-80.51
-86.40
-89.21
-89.20
-87.18
-84.01
-80.19
-75.84
-70.80
-64.93
-58.30
-51.24
-44.30
-38.06
-33.08
-29.78
-28.44
-29.15
-31.79
-36.02
-41.23
-46.60
-51.24
-54.34
-55.48
-54.71
-52.49
-49.40
-45.77
-41.47
-36.01
-28.94
-20.28
-10.69
-1.32
6.77
13.08
17.92
22.28
27.19
33.24
40.18
46.96
52.14
54.48
53.40
49.19
42.84
35.59
28.44
21.93
16.05
10.52
4.98
-0.77
-6.78
-12.93
-19.09
-25.14
-30.97
-36.48
-41.63
-46.49
-51.36
-56.84
-63.78
-73.07
-85.15
-99.43
-113.96
-125.74
-131.80
-130.43
-122.13
-109.35
-95.29
-82.31
-70.81
-59.40
-45.92
-29.02
-8.92
12.74
33.96
53.33
70.45
85.51
98.52
108.85
115.35
117.10
114.01
107.09
98.21
89.30
81.83
76.45
73.17
71.61
71.26
71.52
71.63
70.61
67.40
61.14
51.56
39.17
25.23
11.39
-0.90
-10.87
-18.78
-25.89
-33.85
-43.98
-56.27
-69.22
-80.12
-86.21
-85.90
-79.50
-69.12
-57.59
-47.28
-39.08
-32.34
-25.57
-17.46
-7.60
3.44
14.45
24.25
31.94
37.07
39.40
38.84
35.50
29.73
22.18
13.73
5.36
-2.02
-7.58
-10.61
-10.55
-7.19
-0.83
7.49
16.17
23.34
27.46
27.88
25.07
20.59
16.48
14.53
15.60
19.40
24.68
29.86
33.70
35.76
36.38
36.38
36.55
37.45
39.30
42.18
46.06
50.84
56.17
61.41
65.69
68.07
67.80
64.49
58.19
49.32
38.55
26.74
14.72
3.24
-7.21
-16.44
-24.44
-31.33
-37.29
-42.59
-47.69
-53.27
-60.01
-68.29
-77.88
-87.76
-96.41
-102.29
-104.33
-102.16
-96.15
-86.96
-75.27
-61.54
-46.04
-28.98
-10.70
8.30
27.40
45.94
63.27
78.74
91.60
101.09
106.45
107.15
103.12
94.85
83.40
70.27
57.03
45.03
35.12
27.55
21.99
17.75
13.86
9.37
3.47
-4.31
-13.93
-24.81
-35.98
-46.37
-55.16
-62.01
-67.06
-70.55
-72.55
-72.70
-70.35
-64.90
-56.23
-44.95
-32.33
-20.02
-9.62
-2.34
1.29
1.47
-0.92
-4.55
-8.02
-10.24
-10.65
-9.38
-7.02
-4.43
-2.37
-1.36
-1.63
-2.97
-4.81
-6.23
-6.19
-3.91
0.80
7.37
14.68
21.46
26.76
30.19
31.87
32.17
31.50
30.17
28.36
26.09
23.23
19.41
14.07
6.61
-3.31
-15.53
-29.30
-43.43
-56.49
-67.10
-74.16
-77.01
-75.53
-70.13
-61.65
-51.11
-39.52
-27.75
-16.46
-6.18
2.70
9.85
15.13
18.43
19.73
19.01
16.30
11.77
5.90
-0.56
-6.75
-11.92
-15.75
-18.28
-19.92
-21.05
-21.99
-22.83
-23.59
-24.29
-25.02
-25.91
-27.00
-28.14
-28.90
-28.75
-27.20
-24.05
-19.50
-14.19
-8.93
-4.42
-0.99
1.60
3.98
6.85
10.68
15.56
21.22
27.29
33.45
39.47
45.17
50.25
54.29
56.88
57.75
56.96
54.82
51.84
48.51
45.20
42.13
39.33
36.68
33.98
30.95
27.44
23.50
19.48
15.90
13.29
11.81
11.19
10.66
9.17
5.69
-0.50
-9.44
-20.42
-31.98
-42.24
-49.40
-52.28
-50.63
-45.19
-37.37
-28.83
-20.97
-14.70
-10.31
-7.43
-5.29
-2.90
0.55
5.25
10.55
15.11
17.40
16.45
12.53
7.26
3.16
2.83
7.93
18.70
34.00
51.79
69.86
86.34
99.84
109.30
113.90
113.08
106.83
95.92
81.91
66.71
51.88
38.12
25.07
11.68
-3.14
-19.93
-38.34
-57.38
-75.92
-93.21
-109.08
-123.77
-137.45
-149.76
-159.72
-166.07
-167.82
-164.78
-157.66
-147.67
-135.99
-123.14
-108.94
-92.84
-74.50
-54.20
-32.86
-11.73
8.05
25.77
41.17
54.34
65.54
75.05
83.19
90.26
96.47
101.80
105.93
108.29
108.25
105.44
99.87
91.98
82.57
72.51
62.63
53.47
45.17
37.40
29.37
20.01
8.28
-6.36
-23.68
-42.60
-61.53
-78.76
-92.98
-103.48
-110.11
-113.05
-112.48
-108.50
-101.15
-90.64
-77.59
-63.04
-48.28
-34.45
-22.30
-12.11
-3.85
2.48
6.71
8.55
7.94
5.26
1.49
-2.16
-4.61
-5.27
-4.10
-1.35
2.65
7.65
13.34
19.15
24.13
27.19
27.42
24.50
18.86
11.51
3.70
-3.45
-9.36
-13.99
-17.81
-21.59
-26.11
-31.85
-38.82
-46.44
-53.58
-58.78
-60.53
-57.67
-49.71
-37.03
-20.93
-3.28
13.82
28.62
40.03
47.81
52.37
54.47
54.98
54.64
54.05
53.65
53.62
53.79
53.51
51.81
47.68
40.53
30.57
18.89
7.23
-2.46
-8.67
-10.71
-9.05
-5.17
-1.16
0.95
-0.10
-4.33
-10.56
-16.88
-21.49
-23.42
-22.96
-21.38
-20.39
-21.28
-24.33
-28.69
-32.65
-34.31
-32.24
-25.91
-15.81
-3.07
11.00
25.44
39.83
54.24
68.96
84.16
99.61
114.63
128.05
138.40
144.19
144.27
138.25
126.74
111.30
93.92
76.42
59.93
44.64
30.26
16.43
3.17
-9.12
-20.14
-30.10
-39.93
-50.95
-64.23
-79.86
-96.78
-113.00
-126.42
-135.50
-139.69
-139.40
-135.50
-128.79
-119.60
-107.74
-92.76
-74.37
-52.87
-29.24
-5.08
17.79
37.78
53.81
65.61
73.65
78.92
82.59
85.54
88.08
89.97
90.62
89.60
86.83
82.79
78.10
73.21
68.08
62.15
54.62
44.77
32.42
18.19
3.51
-9.63
-19.06
-23.13
-21.21
-13.95
-3.13
8.97
20.24
29.21
35.21
38.12
38.04
35.12
29.65
22.17
13.63
5.11
-2.46
-8.72
-14.03
-19.18
-25.01
-31.79
-39.03
-45.60
-50.19
-51.86
-50.47
-46.64
-41.48
-36.09
-31.24
-27.28
-24.19
-21.81
-19.98
-18.58
-17.56
-16.88
-16.57
-16.70
-17.43
-18.90
-21.19
-24.24
-27.82
-31.59
-35.17
-38.22
-40.48
-41.81
-42.17
-41.64
-40.40
-38.73
-36.95
-35.38
-34.30
-33.85
-34.08
-34.88
-36.01
-37.23
-38.32
-39.17
-39.79
-40.20
-40.43
-40.42
-40.18
-39.71
-39.12
-38.52
-37.91
-37.22
-36.37
-35.39
-34.52
-34.07
-34.28
-35.09
-36.03
-36.33
-35.18
-31.96
-26.40
-18.62
-9.00
1.89
13.43
24.97
35.98
46.10
55.27
63.64
71.49
78.88
85.51
90.67
93.50
93.34
90.04
84.17
76.85
69.53
63.58
59.92
58.85
60.01
62.47
64.91
65.93
64.46
59.97
52.84
44.16
35.46
28.15
23.08
20.32
19.22
18.79
18.10
16.54
13.89
10.21
5.65
0.45
-5.10
-10.52
-15.20
-18.62
-20.64
-21.73
-23.04
-26.10
-32.28
-42.22
-55.52
-70.75
-85.86
-98.83
-108.16
-113.19
-113.98
-111.13
-105.45
-97.79
-88.99
-79.76
-70.64
-61.92
-53.53
-45.17
-36.48
-27.29
-17.76
-8.45
-0.01
6.95
12.21
15.93
18.64
20.99
23.52
26.48
29.72
32.81
35.27
36.70
37.01
36.44
35.50
34.85
35.03
36.25
38.27
40.42
41.76
41.48
39.15
34.94
29.52
23.87
18.83
14.98
12.43
10.96
10.23
9.84
9.44
8.68
7.14
4.43
0.30
-5.23
-11.77
-18.63
-25.05
-30.45
-34.59
-37.69
-40.26
-42.89
-46.03
-49.79
-53.97
-58.13
-61.79
-64.56
-66.23
-66.71
-65.95
-63.79
-59.92
-53.98
-45.68
-35.00
-22.24
-8.08
6.57
20.66
33.19
43.40
50.90
55.73
58.35
59.48
59.94
60.39
61.19
62.28
63.28
63.56
62.52
59.70
54.88
48.15
39.80
30.28
20.06
9.62
-0.66
-10.54
-20.03
-29.27
-38.38
-47.33
-55.73
-62.87
-67.83
-69.70
-67.91
-62.27
-53.16
-41.42
-28.14
-14.52
-1.60
9.77
18.95
25.39
28.62
28.30
24.44
17.53
8.49
-1.60
-11.90
-22.01
-31.90
-41.58
-50.71
-58.53
-64.14
-66.92
-66.94
-64.98
-62.10
-59.07
-55.93
-51.96
-45.93
-36.78
-24.09
-8.35
9.19
26.81
42.94
56.47
66.92
74.36
79.12
81.49
81.64
79.60
75.46
69.60
62.67
55.44
48.54
42.17
36.11
29.92
23.27
16.27
9.38
3.18
-2.02
-6.42
-10.69
-15.53
-21.28
-27.63
-33.73
-38.58
-41.53
-42.53
-42.13
-41.13
-40.20
-39.62
-39.28
-38.93
-38.37
-37.71
-37.22
-37.33
-38.30
-40.09
-42.35
-44.47
-45.71
-45.40
-43.02
-38.29
-31.23
-22.14
-11.57
-0.27
10.91
21.21
30.02
37.09
42.50
46.62
49.88
52.67
55.12
57.09
58.34
58.85
59.09
60.16
63.33
69.27
77.30
84.84
87.70
81.18
61.32
26.35
-22.36
-79.96
-138.42
-187.51
-216.83
-218.19
-188.50
-131.32
-56.28
23.50
94.97
148.15
177.50
181.90
164.06
129.73
87.24
46.38
16.42
3.68
9.90
32.22
64.82
101.23
135.69
163.21
179.09
178.77
159.09
120.37
67.34
8.35
-47.36
-92.89
-125.63
-147.05
-161.01
-171.09
-178.98
-184.22
-185.12
-180.16
-169.01
-152.86
-133.91
-114.56
-96.51
-80.47
-66.36
-53.76
-42.50
-32.82
-25.18
-19.86
-16.65
-14.68
-12.88
-10.39
-7.08
-3.61
-1.15
-0.77
-2.84
-6.68
-10.71
-12.95
-11.78
-6.55
2.14
12.67
22.92
31.10
36.17
38.17
37.80
36.02
33.39
29.61
23.49
13.26
-2.64
-24.72
-51.94
-81.79
-111.07
-137.05
-158.43
-175.56
-189.89
-202.77
-214.47
-223.93
-229.27
-228.70
-221.24
-206.92
-186.42
-160.54
-130.08
-95.88
-59.28
-22.26
12.61
42.53
64.77
76.96
77.48
65.91
43.67
14.59
-15.29
-38.57
-47.96
-38.12
-7.29
41.67
101.29
161.11
210.71
243.23
257.90
259.82
257.13
256.54
259.76
262.72
258.27
240.42
207.84
164.59
117.71
73.57
35.16
1.77
-29.13
-59.61
-90.09
-119.71
-147.56
-173.61
-198.51
-222.45
-244.09
-260.34
-267.14
-261.02
-240.43
-206.42
-162.61
-114.51
-68.48
-30.24
-3.42
11.65
18.28
22.37
30.53
48.08
77.64
118.68
167.57
217.90
261.10
287.71
289.93
264.54
215.09
151.48
86.87
33.10
-3.20
-21.52
-25.66
-20.29
-8.45
8.89
31.35
57.29
83.18
104.87
119.67
127.86
132.59
138.10
147.24
159.86
172.80
181.42
181.67
171.69
152.17
125.58
94.82
62.31
30.01
0.06
-24.36
-39.07
-39.84
-24.15
7.51
51.73
103.13
155.95
204.94
245.29
272.21
281.06
269.31
238.78
196.93
155.40
125.82
114.69
120.21
132.66
138.34
125.45
88.87
32.16
-33.68
-93.98
-134.84
-147.12
-128.73
-85.44
-28.84
26.39
66.06
79.90
64.07
22.16
-35.44
-93.16
-135.06
-148.16
-126.85
-74.92
-4.77
66.46
122.05
150.17
146.89
113.76
57.62
-12.63
-88.01
-160.53
-223.73
-273.11
-306.74
-324.52
-331.59
-334.22
-338.83
-349.47
-365.86
-383.10
-393.09
-388.03
-362.13
-317.67
-260.16
-196.79
-132.80
-69.41
-4.14
65.96
131.15
195.77
247.18
272.82
263.52
217.27
140.59
46.87
-47.34
-126.70
-179.04
-201.05
-193.66
-161.86
-113.02
-55.53
2.15
52.32
89.14
110.78
116.84
111.36
100.58
90.60
85.22
84.74
86.31
85.60
79.76
66.85
48.38
27.77
8.73
-6.34
-17.23
-25.91
-35.35
-47.69
-63.89
-82.17
-98.80
-109.48
-110.90
-101.86
-83.69
-59.85
-34.82
-13.27
1.58
8.93
10.82
11.73
17.18
31.65
56.84
90.84
129.08
166.27
198.59
224.75
245.60
262.50
275.79
284.28
285.91
279.36
265.51
247.88
232.13
224.65
230.82
253.47
291.66
340.57
392.22
437.51
468.69
481.50
475.92
455.46
425.19
389.68
351.74
312.41
271.75
229.79
186.84
143.29
99.22
54.19
7.55
-41.13
-91.46
-142.24
-191.72
-237.89
-279.24
-315.21
-346.59
-375.37
-403.86
-433.43
-463.40
-490.95
-512.24
-524.33
-526.68
-521.42
-512.02
-501.39
-490.27
-477.28
-460.14
-437.22
-408.55
-375.16
-337.68
-294.98
-244.30
-183.21
-112.29
-36.99
33.07
86.97
116.91
121.35
105.62
79.39
52.56
31.59
18.13
10.20
4.67
-0.60
-6.03
-11.23
-16.18
-21.88
-29.98
-41.71
-57.06
-74.58
-91.74
-106.01
-115.73
-120.55
-121.36
-119.72
-116.98
-113.70
-109.45
-103.10
-93.46
-79.87
-62.47
-42.05
-19.61
4.14
28.82
54.29
80.35
106.56
132.20
156.33
177.92
196.13
210.41
220.57
226.70
228.74
226.14
217.65
201.50
176.10
140.86
96.99
47.63
-2.90
-50.27
-91.46
-125.26
-152.01
-172.62
-187.71
-197.21
-200.64
-197.69
-188.64
-174.38
-155.97
-134.37
-110.38
-85.08
-60.22
-38.24
-21.72
-12.54
-11.16
-16.49
-26.40
-38.51
-50.90
-62.52
-73.00
-82.29
-90.27
-96.64
-101.12
-103.65
-104.51
-104.14
-102.73
-99.85
-94.48
-85.42
-71.95
-54.24
-33.24
-10.13
14.25
39.48
65.26
90.86
114.81
135.36
151.19
162.17
169.49
175.09
180.51
186.04
190.50
191.95
188.91
181.40
171.21
161.30
154.56
152.54
154.86
159.54
163.98
166.27
165.99
164.46
164.23
168.32
179.34
198.70
225.98
258.44
291.16
317.79
332.23
330.49
311.98
279.65
238.67
194.46
150.90
109.80
71.62
36.79
6.68
-16.51
-30.72
-35.43
-32.38
-25.40
-19.20
-17.89
-23.96
-37.99
-59.29
-86.92
-120.43
-159.75
-204.36
-251.95
-297.90
-335.64
-358.32
-361.01
-342.35
-305.12
-255.14
-199.27
-143.64
-93.06
-51.56
-23.08
-11.09
-16.84
-37.44
-65.22
-89.65
-101.33
-96.00
-76.26
-50.06
-26.83
-13.30
-11.42
-19.05
-32.42
-48.48
-65.79
-83.66
-100.94
-115.50
-124.91
-127.68
-124.05
-115.91
-105.87
-95.93
-86.70
-77.41
-66.46
-52.42
-34.80
-14.30
7.39
28.13
46.04
59.96
69.54
75.23
77.86
78.32
77.27
75.07
71.81
67.56
62.50
57.05
51.76
47.15
43.53
40.95
39.24
38.18
37.65
37.69
38.36
39.54
40.79
41.40
40.55
37.61
32.32
24.92
16.02
6.35
-3.39
-12.71
-21.30
-29.09
-36.08
-42.44
-48.41
-54.32
-60.43
-66.82
-73.15
-78.62
-82.08
-82.31
-78.51
-70.50
-58.83
-44.52
-28.81
-12.72
2.93
17.63
31.04
43.01
53.61
63.08
71.78
80.00
87.79
94.90
100.80
104.91
106.77
106.26
103.67
99.61
94.90
90.31
86.34
83.12
80.38
77.53
73.93
69.09
62.84
55.35
47.08
38.67
30.75
23.89
18.46
14.54
11.95
10.25
8.81
6.99
4.29
0.45
-4.47
-10.20
-16.34
-22.64
-29.04
-35.72
-42.94
-50.81
-59.11
-67.33
-74.69
-80.40
-83.91
-84.93
-83.46
-79.67
-73.81
-66.21
-57.25
-47.40
-37.16
-27.06
-17.55
-8.90
-1.20
5.63
11.79
17.48
22.85
27.92
32.59
36.69
40.04
42.58
44.30
45.28
45.57
45.12
43.80
41.49
38.24
34.28
30.08
26.17
23.01
20.81
19.48
18.65
17.89
16.83
15.24
13.09
10.41
7.22
3.48
-0.95
-6.16
-12.14
-18.77
-25.78
-32.85
-39.57
-45.48
-50.03
-52.63
-52.68
-49.78
-43.81
-35.00
-23.85
-11.05
2.69
16.77
30.65
43.91
56.22
67.26
76.79
84.58
90.41
94.03
95.26
94.00
90.37
84.76
77.85
70.50
63.55
57.67
53.13
49.90
47.67
46.08
44.89
44.03
43.67
44.11
45.72
48.66
52.75
57.32
61.28
63.34
62.42
58.02
50.28
39.88
27.59
13.96
-0.88
-17.10
-34.94
-54.38
-74.80
-94.73
-111.74
-122.72
-124.59
-115.36
-95.19
-66.93
-35.54
-6.76
14.69
26.55
29.31
25.56
18.61
11.23
4.97
0.34
-2.60
-3.72
-2.60
1.08
7.05
14.10
20.30
23.63
22.90
18.30
11.42
4.59
-0.14
-1.84
-1.01
0.82
1.85
0.86
-2.37
-7.19
-12.51
-17.44
-21.57
-25.12
-28.48
-31.92
-35.33
-38.14
-39.63
-39.18
-36.47
-31.38
-23.82
-13.59
-0.51
15.13
32.06
47.96
59.73
64.39
59.96
46.01
23.67
-4.79
-36.63
-69.12
-99.61
-125.73
-145.43
-157.38
-161.31
-158.44
-151.22
-142.47
-134.01
-125.17
-111.90
-87.49
-45.10
18.50
99.91
188.51
269.14
327.23
353.95
348.82
318.52
273.33
223.20
175.72
136.10
107.81
92.35
87.99
88.88
86.31
72.43
44.44
6.56
-32.03
-62.53
-81.72
-93.91
-108.50
-134.49
-175.35
-226.98
-279.59
-321.96
-345.50
-346.45
-325.82
-288.04
-239.17
-185.67
-133.62
-88.16
-52.94
-29.66
-17.31
-11.88
-7.27
2.48
20.20
43.42
65.00
76.63
73.67
58.89
42.59
38.52
57.60
102.55
166.36
235.17
294.15
333.03
349.00
345.88
331.00
311.52
292.07
274.13
256.94
239.00
219.49
198.51
176.91
155.34
133.86
111.96
89.11
65.46
42.00
20.36
2.09
-12.09
-22.67
-31.12
-39.16
-47.97
-57.54
-66.61
-73.35
-76.22
-74.88
-70.52
-65.53
-62.54
-63.53
-69.08
-78.26
-89.15
-99.69
-108.49
-115.35
-121.09
-127.06
-134.34
-143.14
-152.58
-161.06
-166.91
-169.13
-167.74
-163.70
-158.36
-152.81
-147.39
-141.66
-134.70
-125.56
-113.59
-98.57
-80.67
-60.29
-38.07
-14.89
8.12
29.60
48.24
63.11
73.94
81.17
85.72
88.69
90.96
93.02
94.94
96.57
97.64
97.95
97.35
95.79
93.33
90.18
86.64
83.05
79.56
76.01
71.99
67.02
60.83
53.50
45.47
37.32
29.56
22.47
16.13
10.47
5.37
0.62
-4.18
-9.71
-16.81
-26.28
-38.59
-53.56
-70.36
-87.58
-103.56
-116.77
-126.15
-131.22
-132.07
-129.14
-122.94
-113.90
-102.24
-88.12
-71.72
-53.43
-33.88
-14.00
5.20
22.74
37.91
50.41
60.46
68.62
75.69
82.33
88.91
95.27
100.72
104.18
104.50
100.81
92.87
81.17
66.84
51.32
35.97
21.72
8.96
-2.35
-12.40
-21.40
-29.36
-36.20
-41.95
-46.81
-51.13
-55.33
-59.80
-64.74
-70.17
-75.88
-81.47
-86.37
-90.01
-91.95
-92.04
-90.42
-87.34
-82.98
-77.24
-69.82
-60.44
-49.17
-36.56
-23.64
-11.58
-1.33
6.62
12.28
16.10
18.75
20.98
23.48
26.78
31.13
36.50
42.53
48.68
54.30
58.74
61.42
61.91
59.98
55.66
49.27
41.41
32.75
23.97
15.52
7.63
0.27
-6.67
-13.32
-19.63
-25.40
-30.30
-34.04
-36.56
-38.16
-39.57
-41.69
-45.44
-51.27
-59.03
-67.92
-76.73
-84.30
-89.88
-93.40
-95.37
-96.65
-98.01
-99.84
-102.04
-104.10
-105.34
-105.23
-103.49
-99.99
-94.68
-87.39
-77.93
-66.17
-52.32
-37.07
-21.45
-6.56
6.88
18.76
29.57
40.09
50.82
61.57
71.47
79.21
83.64
84.17
80.94
74.46
65.26
53.86
41.30
29.49
21.06
18.44
22.49
31.65
42.40
50.78
54.29
52.93
48.64
43.65
38.82
33.10
24.52
11.89
-4.06
-20.70
-34.96
-44.88
-50.56
-53.84
-57.12
-62.30
-70.05
-79.95
-91.10
-102.68
-114.12
-124.93
-134.44
-141.68
-145.61
-145.45
-141.00
-132.60
-120.91
-106.58
-90.09
-71.82
-52.18
-31.67
-10.77
10.32
31.73
53.77
76.46
99.12
120.29
138.04
150.62
157.17
157.88
153.80
146.42
137.12
126.97
116.74
106.93
97.84
89.46
81.51
73.55
65.11
55.97
46.14
35.78
24.96
13.65
1.69
-11.00
-24.35
-38.07
-51.73
-64.73
-76.30
-85.36
-90.59
-90.64
-84.55
-72.29
-54.93
-34.42
-13.08
7.12
25.00
40.23
53.03
63.74
72.61
79.77
85.51
90.28
94.63
98.84
102.68
105.41
106.14
104.25
99.71
93.00
84.71
75.20
64.43
52.22
38.54
23.88
9.22
-4.26
-15.59
-24.34
-30.60
-34.77
-37.31
-38.50
-38.46
-37.30
-35.18
-32.37
-29.04
-25.15
-20.33
-14.18
-6.60
1.88
10.05
16.52
20.33
21.58
21.46
21.70
23.67
27.65
32.69
37.07
39.11
37.86
33.32
26.13
17.09
6.84
-4.26
-15.88
-27.48
-38.29
-47.46
-54.35
-58.74
-60.77
-60.87
-59.45
-56.77
-52.89
-47.76
-41.40
-34.11
-26.58
-19.87
-15.24
-13.81
-16.26
-22.62
-32.28
-44.15
-57.01
-69.78
-81.60
-91.93
-100.35
-106.55
-110.21
-111.07
-109.04
-104.18
-96.81
-87.41
-76.61
-65.05
-53.29
-41.74
-30.57
-19.84
-9.57
0.16
9.07
16.71
22.53
26.04
26.93
25.14
20.85
14.40
6.15
-3.53
-14.20
-25.23
-35.67
-44.34
-50.01
-51.89
-49.84
-44.58
-37.44
-29.95
-23.33
-18.16
-14.35
-11.33
-8.38
-4.90
-0.53
4.81
11.01
17.78
24.66
31.04
36.28
39.80
41.25
40.52
37.85
33.68
28.61
23.32
18.47
14.68
12.39
11.88
13.11
15.86
19.64
23.93
28.20
32.05
35.15
37.29
38.34
38.26
37.18
35.30
32.91
30.24
27.41
24.40
21.06
17.16
12.47
6.81
0.07
-7.62
-15.85
-23.94
-31.01
-36.28
-39.29
-40.04
-38.84
-36.02
-31.67
-25.63
-17.67
-7.97
2.71
13.07
21.73
27.78
31.16
32.64
33.37
34.43
36.35
39.08
42.16
44.95
46.88
47.54
46.69
44.22
40.12
34.47
27.47
19.41
10.80
2.26
-5.49
-11.93
-16.84
-20.48
-23.40
-26.23
-29.45
-33.33
-37.95
-43.38
-49.78
-57.31
-66.02
-75.71
-86.06
-96.78
-107.87
-119.62
-132.40
-146.40
-161.26
-176.08
-189.58
-200.48
-207.81
-210.84
-209.16
-202.20
-189.43
-170.55
-145.90
-116.62
-84.34
-50.74
-17.16
15.41
45.95
73.09
95.23
110.95
119.72
122.21
120.01
114.95
108.44
101.18
93.42
85.39
77.64
70.78
65.14
60.48
56.13
51.45
46.37
41.40
37.39
35.10
34.54
34.97
35.27
34.43
32.15
29.06
26.42
25.51
26.89
29.94
32.94
33.68
30.22
21.71
8.62
-7.41
-24.24
-39.85
-52.84
-62.37
-68.04
-69.52
-66.67
-59.56
-48.70
-34.90
-18.95
-1.34
17.87
38.80
61.29
84.46
106.75
126.22
141.23
150.86
155.14
154.84
151.13
145.33
138.61
131.98
126.14
121.45
117.81
114.75
111.54
107.42
101.74
94.11
84.40
72.87
60.13
47.13
35.10
25.19
18.18
14.26
12.86
12.92
13.16
12.51
10.27
6.15
0.05
-7.96
-17.76
-28.88
-40.41
-50.95
-58.87
-62.78
-61.94
-56.48
-47.30
-35.64
-22.76
-9.67
2.81
13.98
23.19
30.01
34.46
37.31
39.89
43.68
49.63
57.62
66.33
73.77
77.93
77.63
72.86
64.55
54.14
42.91
31.62
20.62
10.16
0.79
-6.62
-11.18
-12.53
-11.27
-8.81
-6.93
-7.06
-9.89
-15.25
-22.46
-30.72
-39.47
-48.50
-57.91
-68.03
-79.25
-91.88
-105.95
-121.07
-136.36
-150.57
-162.36
-170.64
-174.85
-174.98
-171.56
-165.39
-157.38
-148.33
-138.75
-128.85
-118.66
-108.31
-98.18
-88.81
-80.59
-73.39
-66.50
-58.81
-49.27
-37.25
-22.41
-4.60
16.27
39.92
65.21
89.84
110.67
124.67
130.11
127.31
118.50
106.83
95.19
85.31
77.70
72.14
68.30
66.06
65.41
66.20
67.96
69.98
71.63
72.51
72.60
72.13
71.41
70.66
69.96
69.31
68.58
67.52
65.60
62.01
55.82
46.36
33.70
18.86
3.55
-10.45
-21.95
-30.61
-36.67
-40.33
-41.21
-38.38
-30.93
-18.67
-2.48
16.01
35.21
54.20
72.90
91.56
109.95
126.99
141.03
150.66
155.65
157.37
158.28
160.73
165.76
172.38
177.81
178.57
171.93
156.89
134.47
107.15
78.00
49.73
24.40
3.26
-13.02
-24.32
-31.14
-34.63
-36.50
-38.63
-42.62
-49.32
-58.65
-69.66
-80.78
-90.28
-96.70
-99.29
-98.23
-94.51
-89.52
-84.38
-79.40
-74.01
-67.03
-57.35
-44.56
-29.22
-12.75
3.03
16.44
26.41
32.61
35.39
35.59
34.12
31.87
29.47
27.39
25.94
25.39
25.93
27.75
30.96
35.60
41.55
48.42
55.47
61.73
66.08
67.69
66.26
62.08
55.88
48.40
40.12
31.18
21.66
11.81
2.15
-6.66
-14.21
-20.55
-26.22
-31.97
-38.36
-45.55
-53.19
-60.59
-66.95
-71.68
-74.70
-76.52
-78.28
-81.46
-87.50
-97.22
-110.26
-124.90
-138.39
-147.70
-150.50
-145.98
-135.03
-119.77
-102.73
-85.80
-69.72
-54.10
-37.98
-20.74
-2.81
14.21
27.96
36.24
37.99
33.73
25.47
15.97
7.79
2.52
0.51
1.00
2.53
3.40
2.06
-2.40
-9.91
-19.24
-28.15
-34.07
-34.92
-29.88
-19.61
-5.88
8.95
22.62
33.30
39.72
41.10
37.20
28.33
15.27
-1.00
-19.53
-39.60
-60.63
-81.93
-102.46
-120.87
-135.85
-146.70
-153.74
-158.31
-162.24
-167.22
-174.21
-183.29
-193.81
-204.51
-213.62
-218.96
-218.18
-209.64
-193.14
-170.31
-144.08
-117.49
-92.47
-69.19
-46.60
-23.49
0.30
23.64
44.67
61.69
73.92
81.54
85.26
85.76
83.57
79.19
73.37
67.10
61.38
56.79
53.25
49.92
45.59
39.08
29.78
17.87
4.24
-9.82
-23.19
-35.31
-46.44
-57.57
-70.07
-85.20
-103.64
-125.07
-148.11
-170.78
-191.24
-208.75
-224.06
-239.23
-256.58
-277.50
-301.43
-325.73
-346.33
-358.84
-359.70
-346.76
-319.44
-278.49
-225.62
-163.26
-94.12
-21.01
53.52
127.21
197.91
263.43
321.41
369.59
406.25
430.66
443.34
445.83
440.13
428.13
411.33
390.76
367.35
341.81
315.01
287.56
260.01
232.95
207.19
183.76
163.55
146.92
133.44
122.00
110.98
98.67
83.34
63.56
38.47
8.37
-24.91
-58.05
-87.14
-109.12
-122.97
-130.00
-133.14
-135.56
-139.48
-145.74
-154.15
-164.12
-175.01
-186.03
-195.79
-202.63
-204.66
-200.70
-190.89
-176.69
-160.43
-144.52
-130.73
-119.81
-111.50
-104.54
-96.70
-84.97
-66.07
-37.65
0.36
44.81
89.57
127.21
151.47
159.35
151.86
133.27
109.45
86.12
67.86
57.84
57.77
67.81
86.29
109.65
133.06
151.77
162.52
