1649455976.00
64.000000
-0.00
-0.00
-0.00
-0.00
-0.00
-0.00
-0.00
-0.00
-0.00
-0.00
0.00
0.01
0.01
-0.00
-0.03
-0.05
-0.05
0.00
0.13
0.36
0.66
1.01
1.37
1.72
2.06
2.40
2.79
3.24
3.80
4.42
5.06
5.66
6.20
6.68
7.15
7.68
8.31
9.14
10.09
11.04
11.88
12.56
13.14
13.76
14.65
15.96
17.91
20.32
22.90
25.38
27.58
29.57
31.68
34.32
37.81
42.54
48.15
54.10
59.83
64.97
69.58
74.14
79.34
85.71
93.76
103.00
112.62
121.73
129.77
136.75
143.30
150.75
157.77
166.64
177.95
191.79
206.97
220.57
228.25
225.36
208.53
176.87
132.76
80.05
23.07
-34.94
-92.44
-149.16
-205.23
-260.37
-313.74
-363.87
-409.83
-450.91
-486.50
-515.74
-537.23
-549.22
-549.96
-538.37
-514.20
-478.67
-433.86
-382.42
-326.98
-269.77
-212.54
-156.53
-102.78
-52.16
-5.64
35.90
71.81
101.80
126.01
144.95
159.33
169.86
177.15
181.60
183.50
183.08
180.60
176.43
170.96
164.61
157.71
150.53
143.20
135.79
128.34
120.90
113.52
106.29
99.26
92.50
86.04
79.89
74.07
68.59
63.46
58.69
54.28
50.25
46.59
43.30
40.36
37.78
35.54
33.65
32.10
30.88
29.98
29.40
29.14
29.18
29.52
30.14
31.00
32.05
33.23
34.42
35.47
36.23
36.49
36.09
34.88
32.78
29.73
25.75
20.89
15.28
9.14
2.77
-3.48
-9.27
-14.30
-18.37
-21.37
-23.30
-24.24
-24.33
-23.68
-22.48
-20.90
-19.17
-17.52
-16.21
-15.42
-15.28
-15.77
-16.73
-17.86
-18.83
-19.36
-19.32
-18.77
-17.92
-17.02
-16.27
-15.66
-15.01
-14.12
-12.95
-11.76
-11.07
-11.45
-13.30
-16.59
-20.72
-24.72
-27.72
-29.30
-29.89
-30.45
-32.06
-35.38
-40.26
-45.76
-50.79
-54.86
-58.45
-62.69
-68.42
-75.28
-81.69
-85.28
-83.89
-76.28
-62.33
-42.54
-17.51
11.84
43.59
74.88
100.14
113.40
111.18
94.89
71.20
49.69
38.98
43.19
60.92
86.80
114.98
141.81
166.38
188.91
208.69
222.92
227.65
220.12
200.66
173.23
143.89
118.15
98.70
84.94
74.10
63.21
50.69
36.73
22.77
10.13
-0.98
-11.89
-25.16
-43.72
-69.72
-103.54
-143.17
-184.35
-221.38
-248.61
-261.99
-260.16
-244.60
-219.05
-188.28
-156.85
-128.29
-104.78
-87.36
-76.18
-70.79
-70.24
-73.20
-78.08
-83.14
-86.78
-87.80
-85.61
-80.30
-72.68
-63.94
-55.40
-48.11
-42.75
-39.53
-38.37
-39.08
-41.51
-45.69
-51.67
-59.42
-68.84
-79.62
-91.26
-102.77
-112.55
-118.18
-116.83
-105.96
-84.32
-52.99
-15.53
22.74
56.25
80.75
94.46
98.28
95.14
88.76
82.62
79.12
79.22
82.36
86.80
90.25
90.60
86.52
77.92
65.88
52.17
38.57
26.37
16.08
7.36
-0.64
-8.87
-18.04
-28.22
-38.22
-45.64
-47.32
-40.43
-23.85
0.88
29.84
58.03
81.29
97.80
108.29
114.73
119.00
122.12
124.52
126.69
129.00
130.56
128.16
116.13
88.40
42.22
-18.81
-84.46
-141.64
-179.76
-195.33
-192.59
-180.64
-168.74
-162.73
-164.28
-171.57
-181.55
-191.59
-201.63
-212.35
-222.90
-231.05
-233.82
-229.26
-217.54
-201.12
-183.96
-169.81
-160.69
-155.37
-150.83
-143.61
-131.35
-113.59
-91.80
-68.30
-45.14
-23.02
0.45
28.51
63.92
107.61
158.21
212.49
266.49
316.83
361.55
402.35
442.54
486.39
538.12
600.57
673.62
753.26
831.55
884.95
892.63
841.02
729.58
571.54
388.85
204.39
36.35
-103.27
-207.48
-271.30
-294.34
-282.24
-246.76
-203.02
-164.77
-140.11
-130.09
-130.89
-135.68
-139.22
-139.30
-136.18
-131.27
-125.85
-120.42
-114.94
-109.29
-102.72
-95.13
-86.86
-78.52
-70.85
-64.32
-58.94
-54.33
-49.80
-43.81
-34.85
-22.12
-6.73
7.59
15.01
9.75
-11.04
-45.09
-84.70
-119.52
-140.33
-142.56
-127.78
-102.63
-75.76
-54.83
-44.46
-45.46
-55.31
-69.22
-81.53
-87.05
-82.50
-67.52
-45.07
-20.49
0.01
11.40
11.36
0.78
-16.61
-35.88
-52.48
-63.69
-68.99
-69.87
-68.88
-68.18
-68.33
-67.71
-63.28
-52.01
-32.82
-7.37
20.18
44.80
62.68
72.73
76.49
76.90
76.61
76.61
76.35
74.80
71.77
68.44
66.51
66.81
68.19
67.85
62.84
52.03
37.34
22.87
12.74
8.39
7.65
6.02
-0.44
-12.60
-27.56
-40.43
-47.41
-47.83
-44.28
-40.58
-39.38
-40.67
-42.27
-41.36
-36.47
-28.55
-20.69
-16.79
-19.97
-31.10
-47.90
-65.28
-76.10
-73.13
-51.49
-10.83
43.68
102.52
154.53
190.33
204.77
198.45
176.71
147.06
116.50
89.41
67.00
47.79
31.46
17.08
4.51
-4.68
-7.41
-0.70
16.24
40.82
67.46
89.93
103.62
107.83
105.31
100.06
94.73
89.28
81.62
69.61
52.86
33.03
13.04
-4.63
-19.28
-32.27
-46.10
-62.99
-83.69
-107.02
-130.40
-150.57
-164.81
-172.02
-173.37
-171.92
-171.73
-176.39
-187.73
-205.20
-225.92
-245.81
-261.14
-269.82
-272.16
-270.49
-268.06
-267.71
-270.76
-276.60
-282.91
-286.46
-284.03
-273.16
-252.56
-222.26
-183.42
-137.91
-87.77
-34.69
20.26
76.61
134.20
192.44
249.83
303.72
350.63
387.17
411.14
422.30
422.25
413.60
398.81
379.33
355.66
328.22
298.34
268.62
242.17
221.28
206.04
194.05
181.15
163.17
137.51
103.87
64.31
21.94
-20.42
-61.34
-101.26
-142.32
-187.59
-239.65
-298.82
-361.81
-421.47
-468.21
-493.01
-490.77
-462.22
-413.54
-353.61
-290.33
-228.08
-167.27
-105.86
-41.65
26.17
96.67
167.60
235.91
298.10
350.32
388.98
411.73
418.38
410.82
392.30
366.09
334.53
298.91
260.15
219.51
178.84
140.04
104.32
71.79
41.77
13.40
-13.60
-38.80
-61.41
-80.86
-97.27
-111.46
-124.50
-137.21
-149.66
-161.06
-170.04
-175.00
-174.73
-168.89
-158.23
-144.46
-129.87
-116.58
-105.85
-97.67
-90.97
-84.15
-75.98
-66.26
-55.95
-46.66
-39.82
-36.06
-34.94
-35.31
-35.78
-35.26
-33.24
-29.64
-24.67
-18.58
-11.78
-4.80
1.52
6.25
8.58
8.24
5.72
2.21
-0.78
-1.98
-0.84
2.29
6.38
10.29
13.41
15.79
18.00
20.56
23.56
26.46
28.40
28.66
26.98
23.77
19.94
16.74
15.34
16.55
20.42
26.11
32.03
36.45
38.29
37.75
36.44
36.69
40.42
48.09
58.27
68.13
74.67
76.24
73.29
68.36
64.92
66.01
72.88
84.70
98.69
111.06
117.56
114.71
101.02
78.23
51.93
30.91
24.74
39.83
75.66
123.30
168.15
195.32
195.32
167.57
120.64
69.01
27.83
7.63
10.22
29.52
54.82
74.94
81.90
73.12
51.55
23.44
-4.78
-31.56
-57.62
-83.39
-107.67
-129.11
-147.91
-166.69
-189.50
-219.24
-259.74
-307.16
-348.55
-366.72
-350.19
-300.01
-229.48
-158.13
-103.53
-83.24
-101.99
-150.04
-209.39
-264.72
-309.76
-345.65
-376.23
-404.40
-442.02
-496.51
-566.28
-642.24
-715.04
-779.74
-834.62
-878.84
-842.58
-690.26
-441.98
-162.76
86.69
278.84
412.78
499.90
554.34
588.79
601.76
591.63
563.01
526.58
492.75
465.46
445.30
431.76
424.59
415.09
396.82
370.04
340.84
315.93
296.43
281.03
268.39
257.92
243.44
219.42
187.26
151.40
116.82
83.25
49.96
17.84
-10.76
-36.57
-60.86
-83.65
-103.68
-119.44
-134.88
-152.78
-172.74
-191.94
-208.85
-223.08
-234.34
-242.08
-222.23
-167.50
-90.07
-11.63
53.56
102.18
136.64
160.69
177.39
188.97
191.18
182.43
164.39
140.97
115.37
88.84
61.24
31.45
7.52
-10.87
-25.52
-37.42
-46.01
-50.67
-51.42
-48.65
-42.78
-34.18
-26.55
-22.21
-21.43
-22.90
-25.18
-27.23
-28.22
-27.40
-24.24
-20.73
-18.58
-18.64
-20.87
-24.81
-29.57
-33.97
-36.76
-37.14
-36.02
-34.67
-34.22
-35.32
-38.40
-43.72
-51.33
-60.49
-69.10
-73.97
-71.15
-57.75
-33.73
-2.75
28.95
54.96
71.27
77.61
76.62
72.12
66.99
62.26
57.60
52.45
47.02
42.35
39.49
38.69
39.10
39.26
37.86
34.42
29.61
24.77
21.12
19.40
19.30
19.69
19.28
17.29
13.79
9.70
6.28
4.44
4.24
4.87
5.04
3.68
0.51
-3.77
-7.88
-10.48
-11.01
-9.97
-8.73
-8.71
-10.93
-15.33
-20.98
-26.60
-30.76
-32.37
-30.67
-25.52
-17.99
-10.85
-8.13
-13.74
-29.41
-52.83
-78.18
-98.01
-106.18
-100.39
-82.66
-57.87
-30.84
-5.65
16.38
35.48
51.86
64.95
73.69
77.42
76.88
73.70
69.93
67.51
67.12
68.22
69.57
69.88
68.44
65.46
61.77
58.43
56.26
55.34
55.03
54.30
52.20
48.25
42.62
35.92
29.04
22.80
17.70
13.69
10.53
7.89
5.57
3.51
1.69
0.11
-1.29
-2.75
-4.53
-6.88
-9.90
-13.49
-17.33
-21.03
-24.06
-25.92
-26.15
-24.46
-20.74
-14.96
-7.38
1.62
11.50
21.62
31.34
40.13
47.54
53.09
56.42
57.23
55.30
50.52
43.01
33.14
21.65
9.53
-2.42
-13.37
-22.75
-30.23
-35.70
-39.18
-40.53
-39.41
-35.31
-28.29
-18.55
-6.80
5.92
18.25
28.97
37.34
43.28
47.31
49.57
50.29
49.42
46.42
40.41
30.10
13.88
-10.38
-39.97
-73.15
-107.02
-137.59
-160.66
-173.09
-174.03
-165.20
-150.19
-132.86
-116.68
-103.21
-92.36
-83.33
-75.50
-68.69
-62.94
-58.03
-53.22
-47.97
-41.71
-34.36
-26.40
-18.69
-12.06
-6.92
-3.07
0.20
3.37
6.78
10.37
13.58
15.55
15.50
12.93
7.87
0.90
-7.31
-15.95
-24.48
-32.73
-40.79
-48.86
-56.99
-64.89
-71.94
-77.49
-81.14
-82.98
-83.80
-84.78
-87.12
-91.44
-97.52
-104.30
-110.27
-114.15
-115.48
-114.83
-113.62
-113.57
-115.93
-121.05
-128.44
-137.00
-145.66
-153.67
-160.59
-166.18
-170.55
-174.02
-178.19
-185.82
-199.38
-219.11
-241.81
-261.48
-271.68
-268.41
-251.32
-224.19
-192.99
-163.20
-137.78
-116.91
-99.39
-84.24
-71.47
-60.38
-50.48
-41.27
-32.35
-23.37
-14.04
-4.61
3.98
10.57
18.00
28.43
41.98
56.77
70.64
82.42
91.80
98.85
103.75
114.43
136.34
169.60
209.41
250.46
290.11
328.46
366.84
406.70
460.92
537.24
633.59
739.36
842.78
936.62
1018.61
1089.09
1149.12
1214.80
1295.57
1388.13
1478.18
1550.25
1595.22
1611.15
1600.06
1469.21
1181.30
769.46
320.20
-85.45
-408.11
-644.90
-810.00
-921.72
-996.14
-1030.22
-1023.33
-984.20
-930.08
-877.91
-837.29
-809.91
-793.69
-785.13
-768.88
-734.92
-683.27
-622.81
-563.77
-512.56
-469.00
-431.01
-396.28
-355.61
-303.59
-241.48
-176.14
-115.20
-66.34
-30.67
-6.92
7.00
17.03
27.41
39.12
50.29
58.51
62.59
63.21
61.29
57.58
54.20
52.49
52.53
53.35
53.76
53.08
51.57
49.45
46.68
43.47
39.87
35.81
31.14
25.71
19.37
12.27
5.64
-1.49
-9.28
-17.62
-26.29
-35.02
-43.53
-51.56
-58.85
-65.10
-70.43
-74.71
-78.04
-80.57
-82.52
-84.16
-85.74
-87.53
-89.44
-91.59
-93.88
-96.24
-98.61
-101.00
-103.46
-106.16
-109.43
-113.06
-117.14
-121.63
-126.54
-131.81
-137.38
-143.15
-149.06
-155.21
-160.95
-165.93
-169.79
-172.15
-172.55
-170.36
-164.63
-153.79
-141.17
-128.00
-115.21
-103.41
-92.92
-83.75
-75.67
-68.37
-61.64
-55.56
-49.67
-43.84
-37.96
-31.77
-24.82
-16.56
-6.55
5.26
18.36
32.41
46.73
60.77
74.46
88.25
102.98
119.41
137.85
157.87
178.90
200.08
220.77
240.87
260.81
281.37
303.51
328.28
356.73
389.59
426.28
464.13
498.29
522.75
532.22
524.12
499.50
462.48
418.57
372.62
327.76
285.46
246.30
210.73
179.18
151.64
127.31
104.67
82.18
59.04
35.57
13.18
-6.19
-20.77
-29.58
-32.93
-32.61
-31.36
-31.87
-35.52
-41.63
-47.78
-51.09
-49.81
-44.33
-37.03
-31.11
-29.19
-32.32
-39.80
-49.77
-59.86
-67.86
-72.13
-71.92
-67.53
-60.39
-52.67
-46.62
-43.88
-45.02
-49.43
-55.67
-61.78
-65.74
-65.92
-61.41
-52.35
-40.00
-26.72
-15.40
-8.67
-8.13
-13.81
-24.18
-36.86
-49.45
-60.28
-68.48
-73.52
-74.81
-71.68
-63.92
-52.53
-39.94
-29.44
-24.05
-25.42
-33.30
-45.86
-60.44
-74.39
-85.67
-93.08
-96.33
-95.81
-92.46
-87.50
-82.15
-77.41
-74.03
-72.51
-73.14
-75.59
-78.68
-80.34
-78.09
-70.15
-56.47
-39.21
-22.19
-9.34
-2.98
-2.64
-5.23
-6.40
-2.71
6.62
19.17
30.49
36.15
33.57
22.83
6.07
-13.81
-34.20
-53.12
-68.86
-79.70
-84.30
-82.62
-77.07
-72.84
-77.06
-96.45
-134.38
-188.59
-250.81
-308.68
-349.61
-364.62
-350.77
-311.31
-253.71
-186.97
-119.28
-57.05
-4.91
34.02
57.99
66.63
60.81
42.43
14.04
-21.11
-58.82
-93.90
-120.73
-134.60
-133.12
-116.87
-88.89
-53.39
-14.47
24.47
60.48
90.64
112.16
122.96
122.60
112.58
95.76
75.08
52.51
28.77
3.86
-21.75
-46.41
-67.28
-81.38
-86.88
-84.12
-75.60
-64.98
-55.56
-48.95
-44.58
-40.26
-33.43
-22.32
-6.59
12.68
33.64
54.37
73.46
90.13
104.10
115.14
122.95
127.23
128.00
125.92
122.26
118.61
116.24
115.64
116.18
116.47
114.84
110.11
102.02
91.27
79.21
67.29
56.66
48.08
42.02
38.77
38.43
40.69
44.63
48.79
51.56
51.69
48.84
43.79
38.15
33.76
32.12
33.72
38.01
43.50
48.26
50.51
49.15
44.01
35.86
26.04
16.03
7.06
-0.08
-4.99
-7.63
-8.31
-7.71
-6.78
-6.55
-7.84
-10.86
-15.12
-19.60
-23.21
-25.23
-25.59
-24.73
-23.38
-22.28
-21.87
-22.27
-23.37
-24.97
-26.89
-29.04
-31.25
-33.22
-34.60
-35.02
-34.21
-32.15
-29.25
-26.22
-23.90
-22.90
-23.32
-24.95
-27.15
-28.97
-29.42
-28.01
-24.99
-21.20
-17.73
-15.40
-14.97
-16.46
-18.78
-19.77
-17.04
-8.88
5.29
24.80
48.05
71.66
91.96
106.21
113.46
114.26
109.90
101.93
91.86
81.00
68.80
53.97
35.76
14.56
-8.40
-31.94
-55.07
-76.85
-88.11
-81.53
-56.06
-18.48
21.42
56.50
83.99
104.28
119.36
129.91
136.11
136.73
130.84
119.11
103.47
85.89
67.61
48.26
29.95
11.00
-11.38
-38.86
-71.05
-106.34
-143.77
-183.65
-226.51
-271.29
-315.59
-354.34
-380.57
-387.88
-373.52
-339.45
-290.59
-231.79
-166.31
-98.27
-33.25
21.63
59.61
76.28
71.60
50.60
21.90
0.82
-1.26
17.42
48.15
79.55
104.85
123.01
136.16
146.95
156.72
164.37
168.00
166.32
160.55
153.12
146.38
141.62
138.91
137.38
134.76
128.84
117.92
102.71
85.12
67.01
49.58
33.28
17.95
2.64
-10.74
-23.16
-34.38
-43.57
-49.94
-53.26
-53.82
-52.27
-49.62
-46.84
-44.85
-43.50
-42.26
-40.62
-38.37
-35.55
-32.38
-29.28
-26.59
-24.83
-23.80
-23.12
-22.41
-21.38
-20.00
-18.34
-16.71
-15.41
-14.83
-14.98
-15.59
-16.31
-16.78
-16.83
-16.45
-15.95
-15.75
-16.26
-17.60
-19.60
-22.03
-24.36
-26.21
-27.15
-27.10
-26.43
-26.23
-28.10
-33.35
-41.88
-51.33
-57.79
-55.95
-42.51
-17.53
15.52
50.79
81.81
103.09
110.76
102.73
79.04
42.25
-2.16
-46.27
-81.65
-101.69
-103.80
-89.82
-64.90
-35.37
-6.91
16.38
32.35
40.39
41.23
36.73
29.52
22.35
17.19
14.75
14.35
14.34
12.98
9.25
3.34
-3.62
-9.76
-13.37
-13.75
-11.25
-7.45
-4.31
-3.20
-4.16
-5.42
-3.54
5.36
23.37
49.65
78.44
100.67
107.15
92.36
57.52
10.45
-37.41
-75.23
-96.26
-99.29
-87.23
-65.51
-40.34
-17.92
-3.88
-1.58
-10.00
-22.62
-29.28
-20.75
5.84
44.48
82.60
106.98
110.36
94.50
68.49
43.16
25.76
17.37
14.32
12.36
9.44
6.60
6.25
9.45
14.54
17.97
16.26
8.06
-4.81
-18.50
-28.61
-32.32
-29.40
-21.86
-12.80
-4.93
0.72
5.08
10.41
19.20
32.91
51.47
73.49
96.84
119.61
140.80
160.46
179.36
198.39
217.99
237.06
254.02
267.11
274.92
276.72
272.57
263.24
249.92
233.90
216.41
198.60
181.42
165.54
151.45
139.31
129.00
120.19
112.42
105.20
98.14
90.81
82.69
73.16
61.52
47.22
30.03
10.07
-12.10
-35.70
-59.99
-84.48
-109.09
-134.01
-159.52
-185.57
-211.77
-237.28
-261.15
-282.62
-301.42
-317.78
-332.31
-345.85
-359.36
-373.85
-390.09
-408.03
-426.15
-441.36
-449.50
-446.74
-431.00
-402.85
-365.35
-322.80
-279.12
-236.81
-196.70
-158.61
-122.15
-87.31
-54.33
-23.46
5.34
32.34
57.71
81.28
102.60
121.09
136.41
148.60
157.99
164.85
169.22
170.71
168.74
162.92
153.23
140.09
124.32
106.62
87.49
67.03
44.86
19.91
-9.50
-45.09
-87.56
-135.45
-184.66
-229.20
-263.14
-282.91
-288.54
-283.52
-272.92
-261.20
-250.76
-241.85
-233.59
-225.30
-217.14
-209.81
-203.85
-199.07
-194.53
-189.17
-182.45
-174.55
-166.38
-159.04
-153.16
-148.67
-144.72
-140.03
-133.40
-124.14
-112.27
-98.45
-83.49
-68.14
-52.78
-37.42
-21.84
-5.95
10.20
26.12
41.12
54.53
65.85
74.85
81.66
86.54
89.74
91.49
91.85
90.84
88.52
85.05
80.76
76.12
71.64
67.81
65.04
63.60
63.55
64.87
67.34
70.66
74.46
78.26
81.63
84.13
85.36
84.99
82.83
78.75
72.78
65.11
56.07
46.14
35.95
26.16
17.48
10.59
6.04
4.26
5.44
9.58
16.40
25.43
35.96
47.12
57.88
67.14
73.78
76.76
75.24
68.64
56.82
40.06
19.18
-4.56
-29.52
-53.86
-75.66
-93.19
-105.02
-110.20
-108.31
-99.50
-84.36
-63.91
-39.29
-11.79
17.31
46.80
75.52
102.28
125.88
145.02
158.38
164.66
162.80
152.05
132.24
103.87
68.14
26.96
-17.32
-62.09
-104.79
-143.18
-175.50
-200.57
-217.87
-227.46
-229.92
-226.18
-217.43
-204.92
-189.87
-173.39
-156.40
-139.64
-123.64
-108.78
-95.30
-83.30
-72.82
-63.80
-56.13
-49.68
-44.31
-39.85
-36.14
-32.99
-30.21
-27.60
-25.02
-22.35
-19.51
-16.49
-13.33
-10.06
-6.71
-3.28
0.23
3.79
7.34
10.73
13.76
16.25
18.10
19.35
20.20
20.93
21.80
22.92
24.21
25.42
26.27
26.60
26.56
26.58
27.30
29.39
33.28
39.08
46.62
55.61
65.90
77.70
91.56
108.15
128.00
151.14
177.01
204.56
232.51
259.76
285.64
310.00
333.33
356.73
381.82
410.18
442.46
477.34
511.12
538.39
553.79
554.06
539.57
514.11
483.52
453.44
427.60
407.14
391.12
377.48
363.90
348.20
328.70
304.50
275.88
244.20
211.46
179.27
148.16
117.45
85.94
52.79
18.38
-15.79
-47.74
-76.09
-100.94
-124.32
-149.78
-181.16
-220.83
-267.73
-316.57
-358.40
-382.97
-382.15
-352.90
-298.74
-229.13
-157.13
-96.24
-57.39
-46.69
-64.24
-104.19
-156.01
-207.04
-245.65
-263.92
-259.18
-233.63
-192.55
-141.99
-87.12
-31.88
20.44
66.20
101.21
121.45
124.76
112.26
88.87
62.45
41.77
33.98
42.52
66.24
99.92
136.03
167.05
187.49
195.00
190.39
176.63
157.49
136.35
115.73
97.50
83.26
74.45
71.83
74.76
80.77
86.06
86.78
80.57
67.65
50.72
33.98
21.50
15.67
16.45
21.42
26.72
28.41
23.86
12.61
-3.56
-21.41
-37.49
-49.32
-55.88
-57.46
-54.89
-48.81
-39.60
-27.60
-13.80
-0.03
11.35
18.19
19.32
14.81
5.76
-6.34
-20.14
-34.62
-48.89
-61.84
-72.02
-77.82
-78.08
-72.66
-62.66
-50.31
-38.28
-29.02
-24.16
-24.27
-29.09
-37.79
-49.25
-62.10
-74.60
-84.60
-89.73
-87.91
-78.14
-60.96
-38.51
-13.97
9.30
28.73
43.07
52.33
57.26
58.78
57.58
54.03
48.46
41.33
33.26
24.87
16.57
8.51
0.62
-7.03
-14.10
-19.96
-23.91
-25.55
-25.06
-23.33
-21.64
-21.11
-22.22
-24.55
-26.92
-28.04
-27.18
-24.68
-21.80
-20.07
-20.46
-22.70
-25.42
-26.72
-25.09
-20.09
-12.36
-3.26
5.76
13.50
19.18
22.37
23.05
21.86
20.29
20.61
24.95
34.13
46.62
58.63
65.48
63.65
52.56
34.95
15.66
-0.54
-10.79
-14.78
-14.06
-10.69
-6.12
-1.03
4.17
8.72
11.45
11.27
7.96
2.51
-3.33
-7.87
-10.46
-11.71
-13.15
-16.39
-22.37
-30.97
-41.16
-51.33
-59.73
-64.71
-65.11
-60.45
-51.29
-39.25
-26.71
-15.97
-8.29
-3.41
0.25
4.70
11.24
19.86
29.43
38.45
46.02
52.21
57.72
63.15
68.26
71.84
72.37
68.95
62.01
53.35
45.41
40.16
38.29
38.95
40.34
40.45
37.93
32.42
24.39
14.74
4.28
-6.54
-17.64
-29.10
-40.89
-52.60
-63.48
-72.58
-79.00
-82.24
-82.26
-79.44
-74.36
-67.68
-60.08
-52.26
-45.02
-39.08
-34.85
-32.35
-31.26
-31.14
-31.80
-33.27
-35.73
-39.22
-43.51
-48.12
-52.40
-55.65
-57.18
-56.23
-52.16
-44.67
-34.08
-21.40
-8.11
4.53
16.00
26.66
37.39
48.92
61.20
73.25
83.55
90.60
93.51
92.21
87.44
80.43
72.61
65.21
59.06
54.51
51.48
49.58
48.44
47.80
47.41
46.89
45.54
42.37
36.37
26.87
13.87
-1.87
-19.00
-35.83
-50.72
-62.31
-69.73
-72.56
-70.78
-64.72
-55.07
-42.98
-30.11
-18.51
-10.26
-6.85
-8.70
-14.94
-23.75
-33.01
-41.00
-46.83
-50.45
-52.30
-52.94
-52.74
-51.76
-49.82
-46.55
-41.41
-33.91
-23.73
-10.90
4.01
19.95
35.52
49.20
59.63
65.89
67.67
65.42
60.34
54.14
48.54
44.72
42.90
42.36
41.84
40.25
37.31
33.80
31.13
30.49
31.95
34.15
34.69
31.18
22.45
9.20
-6.25
-21.02
-32.92
-41.32
-47.02
-51.45
-55.52
-59.00
-60.69
-59.28
-54.25
-46.32
-37.22
-28.85
-22.50
-18.55
-16.69
-16.42
-17.56
-20.19
-24.32
-29.36
-34.01
-36.50
-35.40
-30.35
-22.23
-12.84
-3.99
3.19
8.55
12.64
16.04
18.97
21.33
23.01
24.29
25.82
28.21
31.49
34.94
37.32
37.50
34.96
29.94
23.11
15.16
6.57
-2.39
-11.51
-20.46
-28.79
-36.13
-42.29
-47.22
-50.85
-52.92
-53.00
-50.75
-46.22
-39.96
-32.98
-26.43
-21.23
-17.82
-16.09
-15.45
-15.07
-14.12
-11.98
-8.43
-3.79
1.18
5.44
8.03
8.40
6.63
3.32
-0.55
-3.96
-6.04
-6.14
-3.86
0.81
7.41
14.88
21.77
26.67
28.73
28.03
25.54
22.60
20.31
18.98
18.16
16.97
14.72
11.39
7.69
4.65
3.15
3.38
4.78
6.30
6.92
6.24
4.59
2.85
1.81
1.64
1.63
0.54
-2.79
-8.80
-16.88
-25.58
-33.22
-38.41
-40.53
-39.79
-37.02
-33.32
-29.79
-27.22
-26.01
-26.07
-26.91
-27.77
-27.93
-26.92
-24.70
-21.62
-18.18
-14.85
-11.81
-9.01
-6.28
-3.62
-1.35
0.05
0.27
-0.51
-1.53
-1.62
0.22
4.36
10.32
16.96
22.95
27.32
29.77
30.63
30.56
30.17
29.73
29.16
28.13
26.28
23.38
19.43
14.72
9.76
5.14
1.31
-1.57
-3.78
-5.93
-8.84
-13.24
-19.48
-27.46
-36.57
-45.88
-54.25
-60.59
-63.98
-63.89
-60.37
-54.04
-45.90
-37.06
-28.43
-20.52
-13.55
-7.54
-2.39
2.03
5.93
9.57
13.12
16.50
19.40
21.37
22.09
21.62
20.38
19.03
18.15
18.08
18.84
20.27
22.12
24.13
26.06
27.75
29.24
30.73
32.41
34.27
35.94
36.80
36.34
34.56
32.07
29.81
28.57
28.41
28.53
27.62
24.39
18.21
9.37
-1.05
-11.46
-20.36
-26.75
-30.31
-31.51
-31.26
-30.57
-30.14
-30.19
-30.58
-31.13
-31.79
-32.64
-33.66
-34.50
-34.44
-32.71
-28.99
-23.64
-17.68
-12.43
-8.86
-7.30
-7.45
-8.65
-10.29
-12.05
-13.78
-15.37
-16.53
-16.82
-15.92
-13.80
-10.86
-7.76
-5.23
-3.70
-3.28
-3.80
-4.96
-6.50
-8.18
-9.69
-10.60
-10.40
-8.68
-5.42
-1.13
3.32
6.91
8.92
9.19
8.20
6.90
6.33
7.31
10.12
14.44
19.44
24.08
27.46
29.10
29.07
27.88
26.24
24.64
23.20
21.52
18.99
15.05
9.60
3.10
-3.48
-9.00
-12.61
-14.06
-13.85
-12.96
-12.40
-12.79
-14.12
-15.84
-17.28
-17.98
-17.93
-17.43
-16.86
-16.38
-15.89
-15.15
-13.98
-12.49
-11.03
-9.97
-9.49
-9.38
-9.11
-8.01
-5.65
-2.03
2.38
6.77
10.34
12.58
13.39
13.08
12.13
10.98
9.89
8.89
7.84
6.62
5.16
3.57
2.09
1.02
0.56
0.72
1.23
1.64
1.45
0.38
-1.55
-3.98
-6.42
-8.41
-9.78
-10.58
-11.07
-11.54
-12.13
-12.87
-13.67
-14.43
-15.04
-15.40
-15.36
-14.69
-13.26
-11.10
-8.48
-5.85
-3.70
-2.31
-1.68
-1.48
-1.27
-0.69
0.27
1.27
1.72
1.02
-1.13
-4.50
-8.39
-11.77
-13.72
-13.74
-11.97
-9.09
-6.03
-3.63
-2.36
-2.26
-3.09
-4.43
-5.86
-6.97
-7.43
-7.03
-5.83
-4.20
-2.80
-2.32
-3.14
-5.10
-7.54
-9.48
-10.14
-9.16
-6.73
-3.46
-0.04
2.97
5.28
6.86
7.73
7.98
7.66
6.94
6.09
5.47
5.41
6.12
7.50
9.23
10.80
11.73
11.72
10.79
9.22
7.47
5.91
4.69
3.71
2.72
1.56
0.26
-0.89
-1.44
-1.06
0.28
2.28
4.42
6.17
7.19
7.36
6.72
5.34
3.25
0.46
-2.99
-6.86
-10.77
-14.18
-16.55
-17.57
-17.17
-15.57
-13.17
-10.42
-7.64
-5.01
-2.52
-0.14
2.15
4.30
6.19
7.74
8.96
9.92
10.72
11.46
12.12
12.57
12.60
12.00
10.56
8.26
5.29
2.02
-0.99
-3.24
-4.43
-4.56
-3.90
-2.82
-1.73
-0.95
-0.69
-1.08
-2.19
-3.93
-6.02
-7.97
-9.22
-9.36
-8.30
-6.34
-4.13
-2.41
-1.82
-2.65
-4.77
-7.71
-10.79
-13.31
-14.80
-15.02
-13.98
-11.87
-8.93
-5.45
-1.71
2.03
5.59
8.86
11.86
14.61
17.06
19.06
20.39
20.89
20.58
19.75
18.86
18.42
18.75
19.88
21.50
23.08
24.02
23.77
22.01
18.65
13.91
8.24
2.21
-3.63
-8.93
-13.54
-17.44
-20.67
-23.19
-24.86
-25.55
-25.30
-24.37
-23.19
-22.18
-21.51
-20.93
-19.89
-17.83
-14.45
-9.89
-4.68
0.50
5.08
8.78
11.57
13.62
15.24
16.81
18.84
21.91
26.42
32.34
38.99
45.19
49.62
51.44
50.56
47.64
43.64
39.28
34.69
29.49
23.16
15.49
6.77
-2.24
-10.75
-18.25
-24.68
-30.31
-35.50
-40.47
-45.16
-49.32
-52.71
-55.33
-57.49
-59.78
-62.76
-66.71
-71.40
-76.15
-80.21
-83.05
-84.74
-85.80
-86.86
-88.15
-89.27
-89.25
-87.05
-82.16
-74.80
-65.76
-55.72
-44.76
-32.18
-16.95
1.52
22.90
46.03
69.39
91.65
111.85
129.09
142.15
149.38
149.11
140.59
124.65
103.81
81.52
61.07
44.50
32.34
23.84
17.77
13.01
8.87
4.96
0.97
-3.45
-8.70
-15.01
-22.29
-30.12
-37.93
-45.21
-51.63
-57.07
-61.51
-64.93
-67.26
-68.45
-68.56
-67.82
-66.57
-65.16
-63.92
-63.03
-62.58
-62.51
-62.70
-63.04
-63.47
-64.00
-64.71
-65.66
-66.81
-68.04
-69.25
-70.41
-71.62
-73.01
-74.66
-76.51
-78.38
-80.01
-81.20
-81.77
-81.56
-80.33
-77.64
-72.93
-65.63
-55.35
-42.10
-26.35
-8.96
9.00
26.44
42.47
56.46
68.07
77.22
84.00
88.61
91.33
92.41
92.09
90.58
88.04
84.57
80.30
75.35
69.92
64.28
58.87
54.20
50.69
48.53
47.52
47.07
46.34
44.61
41.46
37.06
32.02
27.26
23.60
21.51
20.89
21.12
21.34
20.82
19.32
17.15
15.02
13.65
13.36
13.91
14.71
15.12
14.83
13.93
12.79
11.82
11.35
11.57
12.63
14.59
17.19
19.74
21.15
20.26
16.51
10.37
3.30
-2.78
-6.37
-6.97
-5.30
-2.78
-0.87
-0.35
-1.13
-2.40
-3.09
-2.47
-0.39
2.60
5.44
7.03
6.67
4.34
0.80
-2.83
-5.47
-6.62
-6.39
-5.43
-4.54
-4.32
-5.00
-6.54
-8.77
-11.55
-14.80
-18.34
-21.84
-24.90
-27.17
-28.65
-29.66
-30.80
-32.49
-34.75
-37.04
-38.52
-38.41
-36.47
-33.09
-29.02
-25.04
-21.54
-18.60
-16.06
-13.88
-12.12
-10.80
-9.81
-8.76
-7.28
-5.34
-3.36
-2.03
-1.86
-2.76
-4.07
-4.93
-4.74
-3.51
-1.67
0.38
2.70
5.78
10.15
15.77
21.71
26.39
28.28
26.74
22.45
17.28
13.40
12.36
14.28
17.83
20.92
21.65
19.23
14.17
7.93
2.12
-2.26
-5.10
-6.91
-8.26
-9.33
-9.79
-9.08
-6.96
-3.80
-0.53
1.77
2.38
1.37
-0.46
-1.99
-2.33
-1.28
0.63
2.48
3.46
3.29
2.25
0.90
-0.32
-1.37
-2.54
-4.19
-6.44
-8.97
-11.12
-12.15
-11.49
-8.96
-4.83
0.27
5.60
10.54
14.80
18.51
22.01
25.46
28.64
30.84
31.29
29.65
26.41
22.79
20.16
19.30
19.91
20.78
20.51
18.36
14.73
10.94
8.46
8.08
9.43
11.16
11.68
10.02
6.23
1.33
-3.27
-6.41
-7.59
-7.00
-5.14
-2.44
0.83
4.54
8.46
12.11
14.92
16.42
16.54
15.65
14.42
13.48
13.18
13.46
13.97
14.33
14.31
13.88
13.15
12.19
10.88
8.97
6.24
2.66
-1.42
-5.30
-8.18
-9.52
-9.29
-7.96
-6.36
-5.27
-5.13
-5.97
-7.55
-9.54
-11.76
-14.08
-16.36
-18.24
-19.13
-18.33
-15.36
-10.26
-3.72
3.05
8.65
12.06
13.06
12.26
10.79
9.71
9.51
9.97
10.42
10.23
9.17
7.56
5.98
4.91
4.43
4.26
3.95
3.16
1.83
0.13
-1.75
-3.68
-5.66
-7.74
-9.83
-11.74
-13.14
-13.70
-13.25
-11.87
-9.87
-7.68
-5.59
-3.64
-1.62
0.76
3.59
6.65
9.46
11.47
12.45
12.56
12.28
12.05
12.05
12.07
11.76
10.91
9.68
8.52
7.84
7.73
7.86
7.70
6.88
5.39
3.63
2.12
1.21
0.87
0.81
0.58
-0.11
-1.29
-2.76
-4.17
-5.25
-5.82
-5.85
-5.39
-4.51
-3.32
-1.96
-0.63
0.45
1.15
1.47
1.60
1.82
2.36
3.21
4.18
4.98
5.35
5.23
4.70
3.87
2.79
1.47
-0.04
-1.52
-2.64
-3.08
-2.67
-1.56
-0.09
1.26
2.10
2.25
1.70
0.60
-0.87
-2.56
-4.33
-6.04
-7.48
-8.40
-8.61
-8.06
-6.95
-5.69
-4.81
-4.66
-5.32
-6.51
-7.74
-8.50
-8.41
-7.30
-5.19
-2.24
1.25
4.94
8.39
11.22
13.12
13.96
13.76
12.65
10.85
8.60
6.20
3.97
2.17
0.95
0.29
0.10
0.27
0.76
1.52
2.44
3.27
3.67
3.38
2.41
0.98
-0.45
-1.54
-2.21
-2.66
-3.25
-4.23
-5.58
-7.00
-8.08
-8.50
-8.18
-7.23
-5.92
-4.44
-2.87
-1.16
0.72
2.76
4.79
6.56
7.80
8.31
8.01
7.02
5.60
4.07
2.70
1.63
0.83
0.16
-0.56
-1.42
-2.36
-3.21
-3.77
-3.86
-3.42
-2.54
-1.49
-0.56
-0.01
0.04
-0.27
-0.68
-0.86
-0.63
-0.01
0.74
1.31
1.51
1.40
1.21
1.24
1.71
2.60
3.75
4.94
6.06
7.10
8.15
9.28
10.49
11.70
12.85
13.94
15.08
16.43
18.05
19.84
21.49
22.68
23.32
23.77
24.78
27.21
31.46
37.24
43.50
48.99
52.80
54.70
55.07
54.41
52.93
50.42
46.53
41.26
35.18
29.19
24.11
20.12
16.78
13.32
9.20
4.39
-0.60
-5.07
-8.54
-10.91
-12.55
-14.05
-15.99
-18.76
-22.43
-26.75
-31.20
-35.16
-38.10
-39.78
-40.40
-40.57
-41.11
-42.80
-46.06
-50.83
-56.48
-62.06
-66.41
-68.53
-67.79
-64.14
-58.23
-51.24
-44.67
-39.81
-37.30
-36.90
-37.52
-37.65
-35.88
-31.38
-24.08
-14.66
-4.24
6.01
15.15
22.65
28.32
32.23
34.37
34.57
32.46
27.72
20.46
11.54
2.60
-4.22
-6.95
-4.52
2.74
13.09
23.89
32.52
37.23
37.57
34.36
29.15
23.58
18.93
15.97
14.96
15.69
17.40
18.71
17.76
12.83
3.18
-10.37
-25.48
-39.07
-48.53
-52.68
-52.11
-48.75
-44.93
-42.51
-42.25
-43.88
-46.40
-48.62
-49.58
-48.80
-46.29
-42.43
-37.76
-32.80
-27.93
-23.35
-19.14
-15.40
-12.22
-9.58
-7.35
-5.27
-3.07
-0.67
1.74
3.75
4.93
5.02
4.18
2.96
2.04
1.99
2.96
4.62
6.38
7.66
8.19
8.09
7.75
7.55
7.70
8.17
8.78
9.27
9.50
9.42
9.09
8.56
7.90
7.13
6.26
5.35
4.41
3.46
2.51
1.52
0.49
-0.60
-1.68
-2.65
-3.35
-3.65
-3.51
-2.96
-2.18
-1.34
-0.59
0.05
0.64
1.24
1.90
2.54
3.06
3.29
3.07
2.28
1.01
-0.40
-1.26
-0.69
2.08
7.38
14.82
23.36
31.59
38.24
42.51
44.17
43.45
40.75
36.45
30.83
24.16
16.80
9.21
1.91
-4.66
-10.18
-14.44
-17.37
-19.00
-19.40
-18.75
-17.32
-15.51
-13.72
-12.24
-11.16
-10.28
-9.24
-7.72
-5.57
-2.96
-0.28
2.08
3.89
5.21
6.27
7.28
8.36
9.36
10.02
10.14
9.65
8.68
7.45
6.11
4.69
3.10
1.24
-0.85
-2.96
-4.71
-5.77
-5.92
-5.19
-3.76
-1.88
0.27
2.52
4.74
6.77
8.44
9.53
9.94
9.63
8.65
7.14
5.29
3.38
1.75
0.73
0.43
0.71
1.12
1.16
0.52
-0.70
-2.04
-2.92
-2.88
-1.81
0.11
2.52
5.00
7.14
8.46
8.37
6.37
2.16
-4.05
-11.60
-19.50
-26.74
-32.64
-36.93
-39.68
-41.17
-41.65
-41.26
-40.04
-37.97
-35.09
-31.48
-27.31
-22.71
-17.93
-13.22
-8.96
-5.57
-3.32
-2.20
-1.83
-1.55
-0.71
1.01
3.43
5.91
7.70
8.29
7.65
6.14
4.25
2.35
0.54
-1.22
-2.93
-4.42
-5.47
-5.84
-5.44
-4.37
-2.70
-0.49
2.16
5.02
7.54
8.97
8.65
6.51
3.29
0.32
-1.02
-0.00
2.97
6.64
9.59
10.99
11.06
10.77
11.13
12.40
13.92
14.53
13.36
10.44
6.70
3.43
1.53
1.09
1.52
2.11
2.56
3.09
4.11
5.78
7.65
8.86
8.60
6.61
3.37
-0.18
-3.17
-5.23
-6.57
-7.60
-8.57
-9.28
-9.28
-8.22
-6.21
-3.80
-1.74
-0.55
-0.28
-0.60
-1.07
-1.44
-1.81
-2.54
-4.05
-6.68
-10.49
-15.32
-20.73
-26.16
-31.02
-34.94
-38.00
-40.65
-43.50
-46.92
-50.73
-54.09
-55.81
-54.90
-50.98
-44.44
-36.23
-27.39
-18.80
-11.08
-4.77
-0.38
1.76
1.80
0.66
-0.12
1.06
5.08
11.69
19.55
26.91
32.45
35.72
37.13
37.40
37.05
36.16
34.57
32.30
29.74
27.65
26.71
27.15
28.45
29.65
29.78
28.29
25.37
21.72
18.17
15.25
13.02
11.16
9.26
7.15
4.95
2.94
1.37
0.35
-0.22
-0.53
-0.83
-1.42
-2.66
-4.81
-7.95
-11.69
-15.24
-17.68
-18.39
-17.42
-15.53
-13.78
-12.89
-12.80
-12.73
-11.63
-8.98
-5.15
-1.30
1.21
1.60
-0.05
-2.92
-5.96
-8.36
-9.72
-9.96
-9.15
-7.40
-4.97
-2.34
-0.16
1.04
1.12
0.50
-0.05
0.14
1.30
3.08
4.75
5.49
4.81
2.64
-0.66
-4.37
-7.66
-9.81
-10.43
-9.63
-7.93
-6.06
-4.66
-3.99
-3.88
-3.94
-3.85
-3.54
-3.21
-3.11
-3.27
-3.40
-3.06
-1.97
-0.25
1.50
2.55
2.44
1.35
-0.03
-0.84
-0.61
0.51
1.83
2.56
2.23
0.95
-0.74
-2.19
-3.05
-3.36
-3.45
-3.67
-4.20
-4.92
-5.58
-5.94
-6.01
-6.10
-6.55
-7.53
-8.78
-9.59
-9.10
-6.70
-2.40
3.18
9.01
14.08
17.69
19.59
19.85
18.75
16.72
14.31
12.12
10.68
10.26
10.79
11.88
13.03
13.89
14.38
14.59
14.59
14.30
13.35
11.32
7.95
3.44
-1.55
-6.14
-9.49
-11.12
-10.92
-9.08
-5.90
-1.80
2.70
6.80
9.53
10.01
7.98
4.10
-0.19
-3.25
-4.01
-2.55
0.00
2.09
2.60
1.46
-0.44
-1.85
-1.87
-0.34
2.18
4.94
7.36
9.28
10.75
11.83
12.46
12.52
12.05
11.24
10.37
9.60
8.85
7.92
6.81
5.79
5.37
5.94
7.46
9.38
10.84
11.03
9.60
6.83
3.46
0.46
-1.41
-1.81
-0.92
0.71
2.40
3.55
3.85
3.31
2.21
0.97
0.00
-0.45
-0.33
0.25
1.10
2.03
2.95
3.84
4.72
5.48
5.97
6.04
5.71
5.20
4.75
4.46
4.01
2.90
0.79
-2.13
-4.97
-6.50
-5.74
-2.52
2.34
7.34
10.98
12.24
10.85
7.11
1.72
-4.50
-10.57
-15.50
-18.36
-18.63
-16.46
-12.69
-8.69
-5.85
-5.10
-6.61
-9.76
-13.48
-16.57
-18.15
-17.84
-15.78
-12.54
-8.89
-5.56
-3.06
-1.63
-1.15
-1.26
-1.42
-1.05
0.31
2.79
6.14
9.77
12.93
15.02
15.88
15.87
15.70
16.15
17.58
19.73
21.76
22.56
21.28
17.66
12.29
6.34
1.21
-1.96
-2.64
-1.01
2.09
5.56
8.28
9.44
8.69
6.13
2.22
-2.45
-7.21
-11.47
-14.67
-16.33
-16.08
-13.80
-9.74
-4.56
0.70
4.91
7.16
7.02
4.73
1.17
-2.40
-4.70
-4.81
-2.49
1.72
6.69
11.13
14.04
15.04
14.46
13.02
11.44
10.08
8.93
7.72
6.35
4.96
4.03
4.01
5.11
7.11
9.49
11.71
13.44
14.64
15.43
15.85
15.76
14.89
13.03
10.16
6.52
2.40
-1.97
-6.55
-11.41
-16.51
-21.55
-25.92
-28.89
-29.78
-28.25
-24.43
-18.80
-12.16
-5.28
1.19
6.87
11.57
15.12
17.18
17.29
15.00
10.23
3.58
-3.70
-10.07
-14.30
-15.90
-15.33
-13.61
-11.86
-10.82
-10.70
-11.38
-12.61
-14.17
-15.80
-17.06
-17.32
-16.07
-13.27
-9.63
-6.50
-5.28
-6.78
-10.69
-15.70
-20.01
-22.09
-21.29
-17.89
-12.86
-7.27
-1.93
2.73
6.62
9.73
12.04
13.50
14.12
14.06
13.59
13.05
12.76
12.92
13.54
14.35
14.76
13.99
11.33
6.55
0.08
-7.01
-13.48
-18.44
-21.87
-24.52
-27.46
-31.41
-36.23
-40.89
-43.99
-44.36
-41.60
-36.17
-29.18
-21.93
-15.63
-11.12
-8.81
-8.68
-10.23
-12.56
-14.53
-15.11
-13.67
-10.19
-5.31
-0.05
4.54
7.70
9.22
9.52
9.46
10.08
12.17
16.06
21.45
27.54
33.40
38.13
41.11
41.96
40.63
37.42
33.06
28.66
25.36
23.84
23.91
24.60
24.66
23.32
20.79
18.15
16.59
16.59
17.50
17.90
16.43
12.74
7.69
2.90
-0.15
-0.91
0.10
1.81
3.25
4.14
4.90
6.23
8.63
12.04
16.00
19.98
23.73
27.47
31.76
37.23
44.16
52.39
61.26
69.89
77.50
83.48
87.39
88.62
86.39
79.81
68.39
52.39
32.86
11.35
-10.59
-31.65
-50.76
-66.74
-78.11
-83.29
-81.17
-71.80
-56.75
-39.02
-22.47
-10.94
-7.09
-11.46
-21.86
-33.80
-41.95
-42.21
-33.54
-18.46
-1.86
11.24
17.78
17.59
12.71
5.91
-0.64
-5.88
-9.38
-10.73
-9.19
-4.08
4.62
15.81
27.37
36.97
42.94
45.14
44.96
44.69
46.30
50.22
54.65
56.07
50.72
36.34
13.72
-13.10
-37.84
-53.73
-55.14
-38.68
-3.67
47.39
108.81
172.27
228.14
267.54
284.75
278.64
252.49
212.36
164.43
112.92
59.52
4.60
-50.70
-102.57
-144.59
-169.81
-174.17
-159.48
-133.45
-106.84
-89.00
-84.29
-90.91
-103.13
-115.36
-123.72
-127.48
-127.76
-125.58
-120.28
-109.87
-92.97
-70.89
-48.02
-30.02
-21.97
-25.49
-38.22
-54.91
-70.53
-82.44
-91.43
-101.27
-116.92
-143.38
-182.77
-233.05
-287.75
-337.16
-370.67
-380.11
-362.87
-320.45
-263.37
-207.08
-166.38
-149.74
-156.12
-175.97
-195.85
-204.36
-196.28
-173.97
-143.91
-112.81
-84.60
-59.72
-36.64
-13.90
8.35
28.66
45.09
57.18
66.32
75.23
86.71
102.29
121.86
144.18
168.06
192.98
219.39
247.59
276.20
301.37
317.44
319.23
304.72
276.76
242.53
211.26
190.69
184.37
190.81
204.75
219.78
230.67
234.74
231.75
222.96
210.16
195.15
179.76
165.83
154.93
147.52
142.21
135.81
124.38
105.09
77.86
45.77
13.98
-12.35
-30.10
-39.03
-41.12
-39.03
-34.63
-28.54
-20.79
-12.07
-4.50
-1.30
-5.55
-18.58
-39.10
-63.26
-85.99
-102.62
-110.13
-107.90
-97.71
-83.38
-70.14
-63.57
-68.06
-84.98
-111.43
-140.22
-161.74
-167.34
-152.71
-120.00
-77.25
-35.46
-4.22
12.15
16.15
15.82
20.80
37.62
66.49
100.89
130.28
144.41
137.15
108.29
62.61
7.41
-50.10
-104.24
-150.93
-187.09
-210.31
-219.20
-214.18
-197.90
-174.84
-150.21
-128.46
-112.18
-101.64
-95.06
-89.44
-81.83
-70.47
-55.57
-39.38
-25.28
-16.61
-15.14
-20.30
-29.27
-37.92
-42.37
-40.40
-32.28
-20.60
-9.01
-0.47
4.08
6.09
8.55
14.24
24.22
37.16
50.08
59.88
64.82
65.18
62.71
59.45
56.56
54.04
51.14
47.31
42.77
38.55
35.76
34.86
35.21
35.37
33.94
30.37
25.35
20.40
16.95
15.61
15.87
16.56
16.54
15.22
12.77
9.81
7.13
5.49
5.62
8.17
13.52
21.44
30.79
39.69
46.04
48.37
46.42
41.28
34.84
29.01
24.94
22.80
22.04
21.72
20.69
17.64
11.30
0.80
-13.73
-30.68
-47.25
-60.22
-66.81
-65.30
-54.96
-35.67
-7.78
27.44
67.04
105.97
137.59
155.27
154.60
135.24
101.49
61.29
23.90
-2.69
-14.04
-10.34
3.85
21.16
33.60
34.75
21.26
-6.79
-46.36
-92.59
-139.79
-182.31
-215.17
-234.67
-238.80
-227.64
-203.20
-169.09
-129.92
-90.75
-56.57
-31.76
-19.56
-21.25
-35.51
-58.10
-82.40
-100.60
-105.76
-93.72
-64.39
-21.83
26.77
72.77
108.01
126.32
124.69
103.94
68.88
27.89
-8.71
-31.36
-34.37
-18.40
9.25
36.96
53.08
50.30
28.35
-6.33
-43.41
-72.72
-87.59
-86.49
-72.59
-51.82
-30.59
-13.83
-3.84
-0.15
-0.21
-0.51
2.12
9.61
22.34
39.36
59.04
79.59
99.46
117.28
131.84
142.17
147.84
149.42
148.55
147.60
148.68
152.65
158.47
163.27
163.32
155.36
137.95
112.22
81.56
50.31
22.07
-1.75
-22.09
-41.28
-61.25
-82.07
-101.53
-116.10
-122.73
-120.36
-110.52
-96.41
-81.46
-67.93
-56.37
-46.05
-35.86
-25.15
-14.02
-3.15
6.73
15.22
22.28
27.91
31.90
33.59
32.27
27.75
20.83
13.30
7.22
4.10
4.12
6.19
8.47
9.25
7.66
3.85
-1.22
-6.32
-10.41
-12.79
-13.22
-11.77
-8.64
-4.14
1.31
7.15
12.90
18.42
23.98
30.16
37.41
45.60
53.80
60.53
64.45
65.01
62.84
59.36
55.98
53.35
51.09
48.09
43.33
36.49
28.18
19.58
11.86
5.65
0.89
-2.93
-6.42
-9.75
-12.60
-14.25
-14.01
-11.71
-7.99
-4.26
-2.31
-3.58
-8.57
-16.68
-26.46
-36.23
-44.66
-51.04
-55.23
-57.36
-57.55
-55.90
-52.63
-48.19
-43.23
-38.41
-34.21
-30.85
-28.48
-27.26
-27.43
-29.02
-31.71
-34.69
-36.93
-37.46
-35.80
-32.19
-27.55
-23.13
-20.04
-18.77
-18.97
-19.73
-19.94
-18.88
-16.54
-13.45
-10.29
-7.35
-4.44
-1.06
3.11
7.92
12.83
17.21
20.80
23.76
26.56
29.54
32.67
35.52
37.42
37.67
35.73
31.36
24.66
16.28
7.33
-0.73
-6.64
-9.73
-10.31
-9.42
-8.30
-7.77
-7.90
-8.23
-8.21
-7.79
-7.45
-8.00
-10.07
-13.62
-17.97
-22.08
-25.11
-26.73
-27.23
-27.26
-27.49
-28.48
-30.60
-34.08
-38.92
-44.74
-50.58
-55.03
-56.77
-55.17
-51.07
-46.75
-45.27
-48.92
-57.69
-68.29
-74.55
-69.35
-47.31
-7.31
46.59
106.04
161.03
202.84
226.27
230.48
218.31
194.79
165.59
136.02
110.33
91.50
81.02
78.84
83.54
92.66
103.19
112.03
116.40
114.26
104.74
88.59
68.16
46.95
28.59
15.77
9.38
8.35
10.19
11.96
11.32
7.29
0.43
-7.41
-13.87
-16.96
-15.83
-11.16
-4.74
1.32
5.66
8.26
10.31
13.32
18.14
24.28
30.15
34.13
35.76
36.47
39.24
47.31
62.54
84.42
110.12
135.40
156.12
169.14
172.34
164.45
145.25
116.55
82.95
51.29
28.40
17.93
18.18
22.46
22.30
11.58
-10.77
-41.11
-74.25
-107.28
-141.28
-179.95
-225.56
-275.20
-319.80
-346.46
-343.11
-303.11
-227.63
-125.41
-10.10
103.55
203.36
281.78
336.50
369.50
385.27
388.89
384.74
376.00
364.93
353.35
342.83
334.51
328.41
322.98
315.54
303.36
285.04
261.38
235.08
209.63
187.90
170.88
157.54
145.48
132.17
116.07
97.28
77.35
58.47
42.46
29.88
19.87
10.53
-0.24
-13.84
-30.46
-49.08
-68.02
-85.64
-101.03
-114.28
-126.29
-138.43
-152.05
-168.20
-187.15
-207.89
-227.89
-243.37
-250.29
-245.88
-230.01
-205.60
-177.82
-152.23
-132.82
-120.88
-115.03
-112.42
-110.14
-106.36
-100.77
-94.27
-88.45
-85.04
-85.54
-91.00
-101.79
-117.54
-137.12
-158.71
-180.01
-198.50
-211.92
-218.63
-218.04
-210.97
-199.56
-186.97
-176.55
-170.99
-171.43
-177.14
-185.96
-195.16
-202.75
-208.41
-213.78
-221.90
-236.34
-260.30
-295.83
-343.13
-399.84
-460.58
-517.26
-560.79
-583.48
-581.71
-557.12
-515.99
-466.82
-417.42
-372.84
-335.09
-304.13
-279.32
-260.29
-246.69
-237.62
-231.19
-224.91
-216.60
-205.25
-191.29
-176.15
-161.31
-147.32
-133.48
-118.10
-99.33
-76.13
-48.75
-18.69
12.06
41.82
69.94
96.89
123.77
151.72
181.43
213.07
246.26
280.13
313.16
343.23
367.94
385.38
394.85
397.13
394.10
387.70
379.03
368.01
353.93
336.53
316.74
296.61
278.44
263.57
251.46
239.81
225.54
206.29
181.47
152.50
122.22
93.52
68.14
46.19
26.45
7.34
-11.96
-30.92
-47.81
-60.46
-67.32
-68.14
-64.13
-57.42
-50.25
-44.07
-39.16
-34.79
-29.92
-24.00
-17.39
-11.22
-6.54
-3.65
-1.73
0.69
4.81
10.74
17.36
22.91
26.10
26.87
26.48
26.79
29.16
33.69
39.16
43.66
45.56
44.24
40.35
35.41
31.06
28.30
27.14
26.75
26.00
24.13
21.20
18.13
16.20
16.43
19.06
23.37
27.91
31.05
31.50
28.84
23.73
17.76
12.93
11.00
12.77
17.77
24.37
30.49
34.31
34.91
32.42
27.74
22.12
16.79
12.91
11.50
13.39
18.97
27.95
39.22
50.96
61.11
67.91
70.46
68.84
63.97
57.06
49.02
40.10
29.88
17.78
3.60
-11.88
-26.92
-39.18
-46.50
-47.63
-42.67
-33.00
-20.80
-8.41
2.29
10.19
14.77
15.75
12.50
3.87
-11.59
-35.39
-68.90
-113.23
-168.78
-234.37
-306.16
-377.15
-438.15
-480.17
-497.50
-489.99
-463.00
-425.12
-384.66
-346.78
-312.64
-280.58
-248.40
-215.11
-181.33
-148.51
-117.75
-89.06
-61.38
-33.14
-2.88
30.60
67.91
108.94
152.65
196.68
237.25
269.52
288.91
292.71
281.73
260.89
238.29
222.87
222.09
239.97
276.29
326.95
385.03
442.39
491.28
525.85
543.03
542.60
526.51
497.55
458.43
411.17
357.26
298.28
236.23
173.08
109.86
46.44
-18.10
-84.00
-149.57
-210.78
-262.20
-298.87
-317.98
-319.94
-308.02
-287.07
-262.03
-237.13
-215.68
-200.32
-193.00
-194.62
-204.24
-218.52
-231.86
-237.56
-229.72
-205.31
-165.55
-116.19
-65.95
-24.01
2.67
11.04
2.26
-19.49
-48.77
-80.15
-108.81
-130.37
-140.88
-137.46
-119.49
-89.47
-52.96
-16.82
13.15
34.31
47.83
57.57
67.80
80.95
96.62
111.96
123.41
128.57
127.37
122.15
116.40
113.28
114.14
117.94
121.71
121.82
115.33
101.02
79.70
53.63
25.73
-1.63
-27.51
-52.60
-78.42
-106.30
-136.25
-166.69
-195.41
-220.65
-242.35
-262.26
-282.51
-303.08
-321.15
-331.77
-330.21
-314.89
-287.17
-250.58
-208.87
-164.34
-117.51
-70.17
-27.35
3.07
12.55
-0.70
-29.73
-60.97
-79.42
-73.68
-41.02
13.01
78.30
143.42
203.27
258.50
312.39
368.56
431.20
503.34
586.35
678.74
772.43
858.60
928.43
975.08
982.24
941.37
853.91
731.98
610.86
504.97
417.11
344.87
280.46
220.93
167.41
121.58
84.04
53.50
24.67
-5.07
-35.85
-66.13
-93.14
-113.14
-123.65
-124.25
-116.96
-107.70
-100.89
-99.29
-104.61
-117.43
-136.66
-159.46
-180.81
-194.04
-194.00
-176.98
-143.50
-99.46
-54.17
-16.98
5.89
12.97
6.78
-9.12
-31.07
-56.65
-84.57
-113.66
-142.13
-167.90
-189.39
-206.41
-220.50
-233.91
-248.67
-265.77
-285.10
-306.28
-329.62
-356.16
-386.55
-419.45
-450.37
-472.03
-476.57
-458.24
-415.29
-350.35
-269.17
-179.31
-89.43
-8.98
52.70
88.15
94.14
73.37
33.47
-14.88
-61.63
-100.28
-129.13
-150.19
-166.76
-181.00
-192.25
-198.29
-195.59
-181.12
-153.98
-116.17
-72.41
-29.10
7.33
31.56
38.59
26.50
-2.54
-41.96
-82.29
-114.31
-132.52
-136.90
-132.23
-127.85
-132.27
-150.48
-182.99
-226.65
-276.54
-327.55
-375.01
-399.97
-387.90
-331.44
-234.68
-112.33
16.68
136.29
236.86
315.06
372.09
409.22
428.84
433.82
427.90
415.27
399.60
383.41
367.94
353.72
339.39
323.89
306.87
289.05
271.90
256.59
243.15
230.65
217.80
202.60
183.96
162.10
137.67
111.95
85.86
59.49
32.34
3.79
-27.17
-59.76
-93.93
-128.31
-159.38
-181.87
-190.30
-181.35
-155.87
-119.56
-81.13
-49.18
-28.87
-20.52
-20.80
-25.25
-30.53
-35.40
-40.09
-44.85
-49.23
-51.76
-50.98
-46.37
-38.79
-30.15
-21.96
-15.04
-9.24
-3.82
2.19
9.26
16.99
24.17
29.30
31.15
29.31
24.20
16.84
8.48
0.05
-8.03
-15.92
-24.05
-32.71
-41.73
-50.63
-58.81
-65.71
-71.07
-74.98
-77.84
-80.21
-82.60
-85.04
-87.52
-89.94
-92.27
-94.56
-96.95
-99.68
-102.98
-106.85
-110.72
-114.07
-116.42
-117.38
-116.59
-113.66
-108.06
-98.97
-87.74
-74.50
-59.32
-42.41
-24.30
-5.79
12.19
28.69
42.78
54.94
66.32
77.88
90.12
102.94
115.65
127.28
136.75
143.04
147.35
151.66
157.91
167.45
180.82
197.74
217.39
238.71
260.58
284.81
313.94
350.57
396.65
452.86
518.45
591.44
669.00
730.65
759.27
743.32
681.37
582.86
463.84
340.96
227.08
129.78
51.40
-7.76
-51.45
-86.63
-121.59
-162.95
-212.80
-267.61
-319.71
-360.85
-383.64
-385.57
-369.16
-340.61
-307.52
-276.66
-252.58
-237.14
-229.97
-228.03
-227.80
-226.32
-221.76
-213.53
-201.72
-186.93
-170.23
-153.44
-138.44
-126.90
-119.56
-115.65
-113.03
-109.35
-103.04
-94.11
-83.97
-74.30
-66.35
-60.48
-56.31
-53.14
-50.22
-46.47
-40.32
-30.11
-14.92
4.44
25.45
44.68
59.88
70.41
77.64
83.59
89.65
95.48
99.40
99.49
95.03
86.99
77.34
68.44
62.05
59.03
59.35
62.06
65.48
67.46
66.08
60.46
51.35
40.76
31.04
23.61
18.08
12.89
6.51
-1.25
-8.82
-13.48
-12.85
-6.43
4.04
15.11
23.64
28.06
28.87
28.00
27.75
29.50
33.43
38.77
44.06
48.50
52.27
56.30
61.72
69.27
78.91
89.80
100.65
109.48
115.01
116.81
115.22
111.07
104.99
97.01
85.94
74.80
64.24
54.37
45.07
36.12
27.34
18.78
10.81
4.17
-0.21
-2.17
-1.83
0.39
3.74
7.16
9.23
8.33
3.01
-7.32
-22.70
-42.11
-63.86
-86.15
-107.48
-126.67
-142.62
-154.03
-159.41
-157.92
-149.88
-136.84
-121.23
-105.71
-92.77
-84.34
-81.52
-84.45
-92.51
-105.27
-121.52
-139.23
-155.92
-169.80
-180.45
-188.72
-196.00
-203.35
-212.91
-225.19
-238.44
-249.41
-255.57
-256.38
-252.77
-245.74
-235.61
-225.54
-218.36
-215.24
-214.88
-214.33
-209.78
-197.07
-172.83
-136.97
-98.55
-70.08
-61.98
-77.97
-114.91
-165.09
-219.13
-268.77
-281.05
-237.33
-142.83
-24.54
88.81
182.14
253.60
307.32
347.76
377.24
392.51
391.07
374.52
349.32
323.35
302.27
288.22
280.43
275.43
266.05
246.61
215.56
176.19
134.10
94.18
59.07
32.69
14.29
-0.52
-15.85
-33.60
-53.08
-72.58
-90.55
-105.27
-113.96
-113.20
-100.45
-75.23
-40.33
-1.56
33.82
59.92
74.64
80.16
80.72
80.05
79.54
78.32
74.99
69.08
61.87
55.75
52.71
53.13
56.30
61.05
66.24
70.82
73.08
70.23
59.10
37.80
7.35
-27.41
-60.22
-84.39
-95.61
-93.31
-80.20
-60.72
-39.23
-18.94
-1.71
11.15
18.79
20.98
18.08
10.83
-0.03
-14.15
-31.44
-51.86
-74.59
-99.39
-124.56
-146.52
-160.27
-160.83
-145.34
-116.47
-77.81
-36.23
1.37
30.81
51.56
66.02
77.64
88.87
100.07
109.66
114.51
112.00
101.70
86.31
71.02
61.65
61.78
70.00
79.86
81.78
68.02
36.82
-6.26
-51.41
-89.27
-115.05
-129.73
-138.07
-145.38
-154.60
-166.13
-179.04
-192.59
-206.85
-222.03
-235.41
-243.53
-242.94
-231.87
-211.40
-185.33
-158.62
-135.64
-118.84
-108.71
-104.43
-104.31
-106.22
-107.92
-107.69
-104.30
-97.56
-88.19
-77.65
-67.52
-59.00
-52.42
-47.33
-42.93
-38.38
-33.39
-28.20
-23.53
-20.27
-18.98
-19.66
-21.70
-24.15
-26.09
-27.03
-27.02
-26.53
-26.22
-26.49
-27.17
-27.59
-26.78
-23.88
-18.55
-11.02
-1.96
7.90
18.24
29.37
42.11
57.39
75.71
96.81
119.73
143.08
165.67
186.96
207.21
227.35
248.69
272.77
300.91
333.68
370.20
407.49
440.61
463.61
471.40
461.62
435.70
398.43
356.29
315.22
279.00
248.75
223.57
201.61
181.00
160.14
137.77
112.81
84.75
54.03
22.51
-6.64
-29.68
-43.45
-46.62
-40.41
-28.43
-15.61
-6.76
-5.07
-11.29
-23.78
-39.37
-54.63
-67.04
-75.74
-81.49
-86.08
-91.13
-97.12
-102.95
-106.26
-104.52
-96.16
-81.36
-62.00
-40.95
-21.13
-4.78
6.82
13.23
14.61
11.59
5.18
-3.31
-12.47
-20.94
-27.56
-31.28
-31.29
-27.32
-19.90
-10.56
-1.39
5.66
9.59
10.68
10.27
10.22
12.15
17.19
25.86
38.20
53.76
71.40
89.38
105.50
117.70
124.55
125.55
120.85
110.82
95.68
75.45
50.29
21.04
-10.55
-42.02
-70.63
-94.16
-111.28
-121.78
-126.44
-126.64
-124.12
-120.81
-118.52
-118.63
-121.73
-127.42
-134.44
-141.01
-145.45
-146.70
-144.55
-139.64
-133.15
-126.42
-120.49
-115.80
-112.01
-108.13
-102.75
-94.60
-83.11
-68.73
-53.03
-38.25
-26.63
-19.48
-16.52
-15.79
-14.23
-8.87
1.78
17.09
34.31
49.66
59.75
62.71
58.67
49.46
37.86
26.81
18.76
15.32
16.97
23.12
32.21
42.15
50.87
56.90
59.64
59.28
56.56
52.43
47.76
43.34
39.83
37.71
37.21
38.13
39.88
41.59
42.38
41.64
39.26
35.58
31.33
27.29
24.10
22.10
21.31
21.50
22.26
23.19
23.91
24.10
23.50
21.99
19.65
16.77
13.72
10.77
7.91
4.69
0.36
-5.83
-14.29
-24.72
-36.15
-47.20
-56.61
-63.59
-68.12
-70.69
-71.94
-72.24
-71.41
-68.88
-63.97
-56.53
-47.11
-37.04
-28.05
-21.68
-18.77
-19.13
-21.70
-24.93
-27.18
-27.17
-24.26
-18.63
-11.30
-3.99
1.26
2.64
-0.85
-8.85
-19.66
-30.50
-38.32
-40.86
-37.52
-29.51
-19.53
-10.69
-5.21
-3.61
-4.66
-6.09
-5.69
-2.50
3.09
9.75
15.98
20.92
24.57
27.50
30.44
33.72
37.22
40.47
42.85
43.83
43.14
40.74
36.85
31.98
26.79
22.08
18.53
16.52
16.01
16.50
17.23
17.35
16.27
13.80
10.24
6.22
2.38
-0.83
-3.33
-5.41
-7.49
-9.82
-12.35
-14.69
-16.38
-17.11
-16.94
-16.18
-15.26
-14.41
-13.66
-12.80
-11.53
-9.65
-7.08
-3.96
-0.62
2.44
4.75
5.96
6.03
5.28
4.27
3.59
3.48
3.84
4.29
4.54
4.64
4.96
5.98
7.86
10.21
12.21
12.92
11.88
9.42
6.54
4.52
4.32
6.07
9.10
12.25
14.38
14.85
13.70
11.44
8.74
6.11
3.68
1.34
-1.13
-3.85
-6.69
-9.24
-10.94
-11.29
-10.01
-7.18
-3.17
1.47
6.24
10.86
15.29
19.56
23.72
27.69
31.30
34.46
37.10
39.18
40.66
41.35
41.01
39.52
37.00
33.84
30.66
28.00
26.10
24.88
24.08
23.42
22.83
22.43
22.43
23.02
24.21
25.92
28.19
31.19
35.23
40.56
47.12
54.55
62.23
69.35
75.07
78.81
80.39
80.05
78.38
76.18
74.38
73.86
74.98
77.50
80.78
84.16
87.13
89.47
90.92
91.18
89.89
86.07
78.58
66.99
52.25
36.78
23.75
15.80
13.99
17.27
21.86
22.38
13.96
-5.88
-36.47
-74.41
-114.97
-155.56
-191.12
-216.42
-228.10
-225.97
-212.38
-190.84
-164.84
-137.83
-112.61
-90.86
-73.59
-60.81
-51.57
-44.15
-36.88
-28.81
-20.41
-12.41
-5.16
1.19
6.91
12.56
18.71
25.21
31.47
34.79
32.93
24.97
11.29
-6.53
-26.24
-45.42
-62.44
-76.70
-89.38
-101.54
-114.19
-128.37
-144.89
-163.37
-181.66
-196.00
-197.14
-182.09
-152.44
-114.05
-75.15
-43.12
-21.57
-9.72
-4.10
-1.03
0.65
0.61
-1.45
-4.98
-8.18
-8.27
-3.24
6.72
19.05
29.11
32.95
29.11
18.81
5.26
-6.69
-12.91
-11.75
-4.41
5.65
14.77
21.48
26.60
32.33
42.64
61.37
91.05
132.10
182.23
236.95
290.07
334.14
355.19
343.64
299.35
233.77
164.95
108.45
71.47
52.78
46.36
45.55
47.58
52.54
61.04
72.75
83.98
90.50
89.83
82.06
68.43
52.74
39.05
30.01
25.64
23.32
19.53
11.26
-0.50
-15.25
-30.21
-41.68
-46.67
-44.69
-38.40
-32.23
-30.80
-37.47
-56.32
-87.71
-128.76
-174.77
-221.50
-266.49
-308.49
-346.62
-380.26
-412.48
-445.17
-477.91
-507.54
-529.12
-537.25
-527.57
-498.31
-433.01
-332.58
-213.62
-100.56
-11.84
47.07
80.87
97.42
103.29
102.14
92.95
76.76
57.39
40.01
28.10
22.31
19.86
18.80
18.08
15.52
12.25
11.01
14.26
22.21
32.95
43.62
52.46
59.55
65.06
72.73
86.72
109.88
139.70
172.25
203.61
231.70
256.55
278.84
303.10
333.87
373.71
421.38
471.96
517.66
550.18
563.20
540.27
476.96
382.44
276.73
180.51
105.60
52.21
13.82
-14.05
-36.03
-50.70
-56.30
-54.20
-50.43
-53.13
-69.77
-103.67
-152.84
-211.53
-269.74
-317.42
-346.46
-352.64
-335.67
-299.77
-252.35
-202.84
-161.26
-134.15
-123.88
-124.52
-127.15
-121.45
-101.59
-67.82
-24.94
21.16
66.61
108.93
145.95
174.84
191.19
189.96
169.93
134.78
90.83
44.33
-1.30
-44.82
-87.78
-133.40
-186.07
-245.89
-307.09
-359.32
-391.06
-393.63
-364.59
-309.17
-228.56
-136.59
-52.07
10.02
45.04
57.65
55.93
46.12
31.18
12.37
-10.18
-33.40
-52.49
-63.47
-66.32
-62.47
-54.90
-46.24
-37.74
-29.71
-19.95
-5.88
13.46
36.24
58.63
76.44
87.32
91.77
90.79
88.43
89.02
94.83
105.00
116.53
125.84
130.70
130.97
129.27
130.14
138.11
156.42
186.32
227.00
275.32
325.91
362.98
371.22
341.75
277.80
194.31
110.36
40.67
-9.01
-40.85
-61.00
-73.98
-81.22
-82.11
-76.34
-65.71
-53.89
-44.75
-40.56
-41.33
-44.26
-45.52
-42.38
-34.41
-23.68
-13.53
-7.04
-5.63
-8.61
-13.05
-15.28
-12.90
-5.55
4.78
14.74
20.63
19.87
11.80
-2.07
-19.07
-36.74
-53.72
-70.15
-86.79
-104.67
-123.66
-141.86
-155.73
-161.42
-156.33
-140.26
-115.60
-86.36
-57.87
-35.34
-22.83
-22.45
-34.18
-56.01
-82.10
-105.83
-116.49
-107.22
-78.85
-40.49
-4.49
20.09
30.93
31.36
26.67
20.98
14.94
7.34
-2.67
-14.11
-24.38
-30.95
-33.07
-32.22
-31.15
-33.16
-39.80
-50.01
-60.45
-67.60
-67.93
-60.47
-46.96
-30.72
-15.57
-3.83
4.60
11.79
20.48
32.44
47.04
61.51
72.38
76.66
73.66
65.52
56.29
50.75
53.17
66.32
91.41
128.22
172.40
214.60
243.72
249.56
227.88
183.18
126.99
72.65
29.72
1.11
-15.53
-24.52
-29.15
-30.21
-27.13
-20.07
-11.17
-3.87
-1.25
-3.91
-9.57
-14.41
-14.66
-8.57
2.70
15.50
25.31
28.77
25.28
17.61
9.19
3.08
0.99
2.35
4.74
4.45
-2.16
-17.64
-42.39
-74.12
-107.70
-134.62
-145.85
-135.77
-105.98
-65.73
-28.74
-7.51
-8.42
-30.38
-64.80
-100.11
-126.27
-137.61
-132.57
-112.29
-79.08
-31.04
24.43
75.12
109.15
120.68
111.23
87.70
58.50
30.41
7.47
-9.75
-21.21
-27.33
-29.02
-28.07
-26.80
-27.18
-30.13
-35.34
-42.33
-49.51
-55.34
-59.03
-60.94
-62.26
-64.26
-67.16
-70.27
-73.03
-73.24
-68.96
-59.43
-45.50
-29.41
-13.92
-0.77
9.40
17.02
23.74
31.29
40.57
51.10
61.16
68.83
73.44
75.41
76.34
78.70
84.85
96.69
115.55
141.89
170.52
196.67
214.02
215.83
197.75
160.29
109.71
56.22
9.99
-22.70
-40.53
-46.91
-46.94
-44.36
-40.55
-35.37
-28.71
-21.58
-16.04
-13.38
-13.75
-15.68
-16.78
-14.74
-8.74
0.43
10.68
19.51
25.40
28.04
28.37
28.07
28.74
30.41
32.00
31.54
27.00
17.37
2.95
-14.58
-32.93
-50.29
-65.92
-80.16
-94.11
-108.90
-124.77
-140.80
-154.64
-163.99
-167.43
-165.09
-158.36
-149.51
-141.07
-135.45
-134.54
-138.49
-145.93
-153.73
-157.06
-150.39
-129.81
-94.82
-48.92
1.60
51.41
97.52
138.01
172.25
201.04
225.32
245.39
260.80
264.29
251.96
224.24
185.80
142.87
100.34
60.43
23.35
-11.26
-43.44
-71.62
-94.30
-110.88
-122.15
-129.72
-135.65
-141.55
-148.26
-155.68
-162.20
-166.80
-168.22
-166.39
-161.72
-155.32
-148.34
-141.80
-136.25
-131.37
-126.67
-121.79
-116.96
-112.20
-107.78
-103.90
-100.71
-98.07
-95.25
-91.22
-84.58
-76.97
-68.78
-60.52
-52.86
-46.60
-42.54
-40.90
-41.44
-43.33
-45.66
-46.21
-43.50
-37.15
-28.00
-17.59
-7.27
2.25
11.03
19.37
29.72
43.36
59.77
76.74
91.76
103.59
113.22
123.68
138.93
165.79
208.46
266.90
336.79
411.17
483.01
547.00
599.96
640.56
673.12
702.33
731.39
760.60
787.00
805.39
809.72
794.89
733.38
613.71
443.33
247.93
59.34
-99.28
-219.87
-306.12
-366.18
-407.42
-430.47
-435.31
-424.22
-403.05
-379.31
-359.02
-344.73
-335.73
-329.55
-320.63
-305.35
-283.38
-257.75
-232.91
-212.41
-197.56
-187.58
-180.43
-172.24
-160.44
-144.61
-126.39
-108.34
-92.53
-79.78
-69.85
-61.84
-54.13
-45.84
-37.00
-28.74
-22.38
-18.65
-17.33
-17.43
-17.65
-16.49
-12.93
-6.58
1.92
11.41
20.49
28.02
33.05
34.92
33.32
28.44
20.94
11.56
1.47
-8.15
-16.16
-21.75
-24.46
-24.21
-21.25
-15.96
-9.24
-1.83
5.59
12.49
18.67
24.26
29.59
35.03
41.09
47.81
55.29
63.44
71.95
80.44
88.60
96.06
102.50
107.76
111.27
112.79
112.41
110.52
107.72
104.88
102.88
102.56
104.57
108.39
113.43
118.92
123.76
127.02
128.12
126.45
120.77
114.29
107.02
98.41
87.78
74.52
58.87
42.18
26.44
13.90
5.89
1.96
1.16
2.30
3.72
4.86
6.58
10.53
18.53
30.55
44.66
58.58
69.90
74.52
69.89
55.93
34.86
11.80
-9.27
-24.44
-30.20
-26.23
-20.53
-22.18
-37.18
-66.42
-103.63
-144.71
-185.56
-222.51
-255.30
-292.28
-338.69
-392.30
-444.56
-481.54
-499.79
-500.32
-485.62
-461.01
-440.30
-431.96
-435.29
-443.12
-442.99
-436.42
-429.74
-429.44
-381.06
-262.00
-91.02
87.20
198.71
255.83
275.70
266.74
249.83
231.15
204.19
164.58
114.11
59.47
13.71
-20.71
-41.72
-45.11
-30.43
-7.75
11.03
16.83
6.23
-14.69
-43.51
-76.55
-109.45
-141.26
-176.13
-214.89
-251.69
-275.82
-275.00
-248.12
-202.48
-150.12
-104.21
-75.89
-68.94
-79.95
-101.56
-125.27
-147.55
-167.38
-184.34
-198.25
-208.93
-215.51
-216.89
-212.40
-201.78
-186.40
-167.84
-147.13
-124.78
-100.72
-74.70
-46.76
-17.62
11.57
39.59
65.23
87.69
106.52
121.47
132.27
138.56
139.64
135.11
125.07
110.40
92.57
73.43
54.85
38.22
24.34
13.34
5.22
-0.06
-2.30
-1.22
3.37
11.20
21.39
32.55
43.22
52.40
59.91
66.37
72.93
80.63
89.92
100.33
110.73
119.76
126.53
131.10
134.35
137.83
143.32
152.56
166.77
186.06
208.78
231.09
247.63
253.02
244.31
222.74
194.10
166.91
149.29
145.84
156.13
175.44
197.08
215.18
226.37
229.89
226.61
217.96
205.33
190.42
175.32
162.24
152.65
146.24
140.50
131.44
115.22
89.86
56.42
18.56
-18.79
-51.12
-75.61
-91.55
-100.10
-103.71
-105.59
-109.23
-117.75
-133.04
-155.09
-181.86
-209.77
-234.73
-253.18
-262.83
-262.83
-253.77
-237.32
-215.93
-192.51
-169.73
-149.41
-131.98
-116.58
-101.72
-86.05
-69.01
-50.87
-32.37
-14.16
3.43
20.33
36.53
51.94
66.59
80.77
95.09
110.09
125.85
141.63
155.91
166.75
172.28
171.13
162.65
147.20
126.38
103.18
81.59
65.57
57.71
58.29
65.24
75.19
84.90
92.43
97.31
99.89
100.45
98.83
94.76
88.31
80.19
71.40
62.80
54.92
48.21
43.44
41.85
44.56
51.74
62.09
72.94
81.18
84.37
81.60
73.82
63.45
53.68
47.51
46.99
52.55
62.91
75.55
87.46
96.28
100.86
101.34
98.62
93.77
87.60
80.67
73.60
67.20
62.58
60.67
61.80
65.53
70.68
75.73
79.42
81.28
81.74
81.97
83.15
85.75
89.08
91.33
90.29
84.36
73.38
58.79
43.17
29.13
18.47
11.66
7.99
6.14
4.89
3.58
2.08
0.68
-0.32
-0.72
-0.41
0.62
2.39
4.91
7.97
11.12
13.66
14.69
13.38
9.22
2.22
-6.92
-16.92
-26.21
-33.33
-37.37
-38.29
-36.93
-34.61
-32.63
-31.62
-31.49
-31.58
-31.31
-30.67
-30.39
-31.54
-34.88
-40.36
-46.96
-53.08
-57.27
-58.74
-57.64
-54.80
-51.26
-47.93
-45.50
-44.58
-45.92
-50.39
-58.58
-70.23
-83.80
-96.55
-105.29
-107.49
-102.16
-90.26
-74.11
-56.47
-39.44
-23.85
-9.52
4.07
16.88
28.00
35.86
39.08
37.27
31.42
23.60
16.04
10.23
6.35
3.41
-0.07
-5.14
-11.76
-18.79
-24.30
-26.49
-24.40
-18.38
-9.85
-0.87
6.69
11.70
13.93
13.88
12.28
9.95
7.68
6.46
7.45
11.77
19.92
31.47
44.91
58.12
69.16
76.87
81.18
82.99
83.50
83.62
83.63
83.10
81.24
77.46
71.81
65.01
58.29
52.73
48.88
46.59
45.39
44.99
45.62
47.99
52.63
59.39
66.97
73.40
76.66
75.45
69.58
59.84
47.42
33.40
18.54
3.48
-10.94
-23.73
-34.17
-42.46
-50.04
-59.19
-72.04
-89.44
-110.52
-133.13
-154.93
-174.55
-191.98
-208.23
-224.25
-240.19
-255.37
-268.82
-280.20
-289.97
-298.94
-307.10
-312.85
-312.92
-303.50
-281.83
-247.46
-202.67
-151.29
-97.26
-43.40
8.66
57.70
101.77
137.89
162.97
175.39
176.36
170.03
162.13
157.79
159.90
168.56
181.68
196.46
210.26
221.06
227.35
228.06
222.74
212.02
197.80
183.03
170.99
164.19
163.63
168.76
177.86
188.96
200.29
210.64
219.37
226.39
231.84
236.07
239.61
243.06
247.07
252.10
258.36
265.74
273.71
281.08
286.03
286.36
280.06
266.18
245.23
219.16
190.69
162.40
135.92
111.73
89.65
69.49
51.63
36.74
25.11
16.25
8.82
1.10
-8.52
-20.93
-35.89
-52.28
-69.02
-85.74
-102.69
-120.17
-138.33
-157.42
-178.14
-201.41
-227.54
-255.58
-282.64
-303.46
-311.62
-302.21
-274.66
-233.59
-187.26
-144.71
-114.05
-101.37
-109.74
-138.92
-185.83
-245.54
-311.91
-378.22
-432.88
-461.72
-455.75
-417.23
-357.41
-289.18
-221.90
-160.51
-106.97
-61.37
-23.67
5.81
27.14
41.64
51.71
59.73
67.34
75.28
83.72
92.27
99.17
103.06
103.95
103.32
103.04
104.55
108.71
116.05
126.42
139.17
153.39
169.05
186.70
206.16
225.62
241.70
250.38
247.50
228.67
190.49
133.08
59.93
-23.94
-113.73
-205.38
-295.17
-379.09
-452.86
-514.06
-559.30
-584.69
-588.20
-571.38
-538.83
-496.68
-451.03
-407.39
-372.75
-349.90
-335.98
-323.99
-305.73
-274.18
-225.58
-161.01
-69.84
37.41
137.13
208.57
246.14
257.03
252.09
239.84
225.06
209.64
191.93
172.60
154.55
140.52
131.03
124.45
118.64
112.21
104.16
91.80
74.45
53.42
30.90
8.76
-11.58
-29.36
-42.29
-48.64
-48.64
-41.68
-26.40
-2.54
28.46
59.86
83.89
94.90
91.24
75.53
54.79
37.31
28.11
27.75
32.91
40.15
48.50
60.25
77.43
100.23
125.67
147.23
157.95
153.35
134.47
107.34
80.09
58.66
42.87
30.74
15.56
-6.85
-35.79
-63.85
-81.29
-81.39
-63.78
-34.71
-3.31
22.01
37.78
44.32
44.12
39.29
29.90
14.44
-8.93
-39.89
-75.78
-111.72
-142.71
-164.24
-173.24
-169.14
-150.14
-120.69
-86.32
-53.79
-24.98
-1.41
16.97
31.09
42.64
53.70
65.79
80.56
98.64
119.71
137.21
146.52
144.95
132.50
111.32
84.49
55.66
27.98
4.04
-14.95
-27.59
-33.68
-34.02
-30.57
-26.15
-23.58
-24.51
-29.06
-36.50
-44.62
-51.89
-57.86
-63.29
-69.54
-77.67
-88.33
-99.36
-107.72
-109.68
-102.01
-82.60
-51.38
-11.32
32.07
69.59
93.04
97.83
85.11
61.16
34.86
14.47
4.82
6.72
17.67
33.62
49.97
62.64
68.74
66.90
57.97
44.50
30.01
17.67
9.59
6.38
7.92
13.87
23.66
36.59
51.41
66.46
80.02
91.31
99.98
105.52
107.45
104.38
94.96
78.20
54.36
25.02
-7.10
-38.19
-65.56
-87.14
-102.43
-111.63
-115.51
-114.93
-110.51
-103.07
-93.64
-83.90
-74.29
-67.69
-65.71
-69.08
-77.83
-90.94
-105.91
-118.48
-123.52
-116.30
-95.21
-62.88
-25.96
7.30
30.52
41.54
42.81
38.95
34.36
31.07
28.52
24.94
19.17
11.80
4.67
-0.25
-2.50
-3.25
-4.91
-10.17
-20.32
-35.02
-52.04
-68.42
-80.56
-86.00
-83.25
-71.88
-52.27
-26.02
3.60
32.00
53.68
64.89
64.42
54.74
41.51
31.54
30.75
42.10
64.29
92.71
121.25
143.92
156.79
158.19
148.05
126.87
95.65
56.44
13.13
-26.84
-55.99
-69.02
-65.35
-49.38
-28.41
-9.32
4.27
12.53
18.36
24.61
32.62
41.96
51.23
59.28
65.61
70.30
73.70
75.86
75.45
70.54
58.85
39.28
12.03
-20.69
-55.22
-87.64
-114.60
-135.21
-150.36
-161.75
-170.25
-175.04
-173.68
-163.16
-142.21
-111.92
-76.30
-40.51
-9.33
14.00
27.38
29.32
19.38
-0.34
-23.68
-41.48
-44.09
-26.29
9.83
54.57
94.25
117.00
115.98
94.55
61.58
27.65
-2.19
-26.33
-44.96
-58.09
-64.31
-61.10
-46.05
-19.28
16.37
55.71
93.04
123.61
144.68
155.99
159.17
156.64
150.07
140.76
129.44
117.09
104.87
93.61
83.45
72.92
59.94
41.34
19.27
-0.36
-10.33
-6.03
12.85
42.98
78.98
116.41
152.83
188.11
222.33
254.19
282.25
303.42
316.02
320.05
316.63
307.29
293.51
275.97
253.66
225.31
191.89
156.86
124.39
97.52
76.98
60.93
44.05
24.55
-1.88
-37.38
-80.94
-130.29
-183.76
-240.72
-300.62
-363.39
-432.42
-508.72
-587.69
-660.62
-718.61
-756.33
-772.86
-769.84
-752.24
-731.90
-719.25
-719.20
-730.86
-749.73
-770.15
-785.84
-789.86
-741.16
-624.78
-457.54
-278.81
-125.09
-12.88
59.80
97.78
117.58
128.69
129.11
116.36
92.24
63.12
37.39
18.95
7.80
3.03
1.74
-2.26
-11.42
-23.00
-30.32
-26.70
-8.74
23.62
69.41
125.36
185.10
243.74
298.77
349.76
396.24
436.11
466.25
485.74
493.58
488.12
468.84
436.66
393.96
343.55
287.74
228.76
172.74
125.18
89.47
66.50
55.34
54.12
60.59
72.12
86.73
108.94
142.85
190.19
249.24
316.37
387.90
460.92
532.74
599.81
664.36
725.86
780.68
823.82
852.88
870.67
883.94
899.02
873.27
779.64
613.64
398.35
170.15
-40.02
-215.24
-351.42
-453.03
-528.42
-578.76
-604.72
-608.15
-594.44
-571.09
-545.76
-524.34
-510.72
-506.51
-505.51
-501.27
-489.45
-469.69
-444.92
-419.88
-397.67
-380.70
-369.58
-360.11
-348.37
-331.25
-308.24
-281.52
-254.50
-230.17
-211.56
-199.33
-190.99
-183.81
-173.97
-158.55
-136.65
-108.79
-75.71
-39.25
1.17
47.93
103.68
167.38
237.60
310.48
380.36
441.20
486.05
512.13
519.26
493.27
428.91
330.64
210.35
83.15
-26.28
-115.03
-185.14
-239.44
-280.52
-310.74
-330.28
-340.30
-343.04
-341.19
-338.85
-336.77
-334.15
-329.88
-321.01
-304.65
-279.52
-245.76
-204.31
-157.77
-106.86
-51.95
6.09
66.95
129.93
193.24
254.31
310.53
358.74
397.65
427.09
447.73
461.62
471.45
479.53
487.02
493.77
497.42
494.68
481.52
454.06
409.95
349.29
274.75
191.20
105.13
22.54
-51.94
-115.96
-169.39
-213.70
-251.32
-285.13
-317.67
-348.96
-376.59
-395.54
-399.42
-382.91
-344.31
-286.88
-218.13
-147.50
-81.39
-22.93
27.99
73.10
113.98
151.06
183.78
211.27
232.92
251.06
268.22
286.59
307.41
331.03
357.54
387.61
422.79
450.31
460.69
447.54
409.34
348.58
269.16
174.92
70.47
-37.43
-140.10
-226.60
-289.09
-325.19
-338.12
-334.77
-322.66
-307.75
-293.64
-282.42
-273.34
-265.22
-256.85
-247.41
-236.65
-224.72
-212.22
-199.84
-188.62
-178.81
-171.05
-165.98
-163.41
-161.20
-155.13
-140.16
-112.65
-73.08
-26.22
19.95
57.44
81.35
91.58
92.06
88.09
84.33
82.88
83.84
86.63
91.03
97.47
105.91
115.53
121.96
120.62
108.20
84.78
54.48
23.82
-1.07
-17.19
-25.75
-30.95
-36.85
-45.02
-53.81
-59.57
-59.27
-52.44
-41.55
-30.82
-24.07
-22.67
-25.33
-28.85
-29.71
-25.93
-17.75
-7.25
2.76
10.06
14.06
15.72
16.86
19.09
23.23
28.85
35.06
40.82
45.45
48.68
50.52
51.07
50.45
48.88
46.36
43.24
40.08
37.52
36.00
35.64
36.08
36.47
37.34
38.11
37.96
35.98
31.24
22.82
10.05
-7.21
-28.28
-51.42
-74.08
-93.02
-105.09
-108.33
-102.73
-90.39
-74.93
-60.44
-50.03
-45.30
-45.96
-50.54
-57.34
-65.04
-72.77
-79.76
-85.06
-87.46
-86.06
-80.55
-71.56
-60.57
-49.36
-39.46
-31.65
-25.88
-21.47
-17.54
-13.41
-8.85
-4.19
-0.15
2.48
3.32
2.48
0.70
-1.08
-2.06
-1.87
-0.56
1.64
4.65
8.67
13.92
20.31
27.04
32.63
35.39
34.16
28.91
20.77
11.53
2.72
-5.02
-11.92
-18.64
-25.48
-32.14
-38.10
-43.29
-48.61
-55.61
-65.66
-78.80
-93.27
-105.78
-112.52
-110.42
-97.95
-75.38
-44.63
-8.74
28.65
63.78
93.42
115.35
128.77
134.37
134.04
130.14
124.98
120.18
116.60
114.43
113.36
112.83
112.30
111.22
109.12
105.73
101.00
95.24
88.93
82.61
76.56
70.68
64.53
57.51
49.17
39.41
28.47
16.86
5.09
-6.60
-18.42
-31.15
-45.81
-63.11
-82.83
-103.48
-122.28
-135.97
-141.76
-138.27
-125.93
-106.74
-83.54
-59.23
-36.11
-15.74
0.96
13.45
21.41
24.64
23.10
16.95
6.58
-7.24
-23.35
-40.20
-56.12
-69.57
-79.55
-85.76
-88.53
-88.66
-87.02
-84.43
-81.53
-78.91
-77.05
-76.31
-76.73
-77.81
-78.63
-78.11
-75.51
-70.91
-65.11
-59.36
-54.83
-51.99
-50.41
-49.03
-46.77
-42.94
-37.55
-31.08
-24.08
-16.82
-9.18
-0.75
8.85
19.61
31.09
42.52
53.10
62.28
69.90
76.25
81.74
86.62
90.68
93.45
94.50
93.87
92.32
91.02
91.00
92.44
94.53
95.83
95.04
91.76
86.67
81.19
76.63
73.52
71.41
69.29
66.27
62.14
57.46
53.13
49.87
47.77
46.37
44.98
43.18
40.99
38.75
36.67
34.45
31.25
25.96
17.80
6.75
-6.33
-20.10
-33.24
-45.03
-55.44
-64.89
-73.84
-82.41
-90.23
-96.65
-101.02
-102.86
-101.86
-97.73
-90.04
-78.37
-62.61
-43.36
-22.09
-0.90
17.99
32.86
42.91
48.32
49.92
48.90
46.49
43.86
42.12
42.14
44.38
48.62
53.90
58.72
61.62
61.72
58.98
54.19
48.55
43.16
38.51
34.22
29.02
20.92
7.64
-12.50
-39.68
-71.77
-104.39
-131.96
-149.53
-154.47
-147.51
-132.29
-113.76
-96.39
-82.83
-73.68
-68.12
-64.98
-63.39
-62.91
-63.29
-63.97
-64.02
-62.35
-58.28
-51.83
-44.03
-36.55
-31.03
-28.45
-28.60
-30.26
-31.70
-31.46
-29.03
-24.92
-20.27
-16.14
-12.95
-10.21
-6.73
-1.32
6.56
16.27
26.09
33.77
37.60
37.02
32.82
26.78
20.66
15.46
11.05
6.56
1.21
-4.88
-10.68
-14.84
-16.47
-15.83
-14.00
-12.27
-11.20
-10.20
-7.93
-3.14
4.38
13.58
22.56
29.62
34.10
36.64
38.78
41.95
46.74
52.48
57.67
60.64
60.43
57.15
51.73
45.38
38.90
32.55
26.24
20.10
14.82
11.79
12.51
17.77
27.03
38.49
49.86
59.31
66.09
70.41
72.85
73.65
72.45
68.65
62.09
53.60
44.92
37.95
33.88
32.62
32.99
33.44
32.94
31.44
29.87
29.48
31.10
34.65
39.08
42.86
44.74
44.26
41.88
38.60
35.48
33.15
31.79
31.29
31.50
32.32
33.68
35.32
36.79
37.52
37.01
34.97
31.24
25.67
18.06
8.37
-3.04
-15.21
-26.67
-35.92
-42.08
-45.27
-46.72
-48.19
-51.22
-56.41
-63.04
-69.26
-72.77
-71.79
-65.71
-55.40
-42.73
-29.88
-18.66
-10.17
-5.02
-3.65
-6.58
-14.11
-25.93
-40.68
-55.94
-69.01
-77.80
-81.56
-81.14
-78.36
-75.32
-73.63
-74.22
-77.54
-84.03
-94.26
-108.69
-127.09
-148.09
-169.29
-187.94
-202.02
-210.51
-213.26
-209.94
-199.35
-179.47
-148.33
-105.51
-53.25
3.58
58.91
107.45
146.27
175.05
195.26
208.96
217.62
221.74
220.97
214.76
203.09
186.76
167.32
146.77
127.22
110.23
96.40
85.10
75.03
65.21
55.65
47.28
41.28
38.31
37.97
38.72
38.39
35.51
30.75
26.89
27.45
34.92
49.60
69.41
90.52
108.27
119.32
123.52
123.61
123.27
125.08
129.42
134.64
137.54
133.63
118.82
91.24
51.30
0.76
-58.09
-122.34
-186.40
-237.77
-264.96
-265.74
-246.98
-217.94
-185.55
-153.81
-124.44
-97.91
-74.59
-55.76
-42.41
-33.95
-28.26
-22.96
-16.79
-9.15
0.07
10.29
19.93
27.42
32.28
35.18
36.97
37.68
37.35
35.92
32.91
27.43
18.76
6.93
-7.27
-23.19
-40.92
-59.69
-78.24
-95.44
-110.28
-121.55
-128.08
-129.23
-120.92
-106.19
-88.50
-70.47
-54.22
-40.70
-29.61
-20.78
-12.81
-6.19
-2.94
-4.33
-10.61
-20.97
-33.00
-42.24
-43.86
-34.38
-13.09
18.28
57.85
104.46
154.18
195.58
217.33
214.37
190.65
154.91
115.28
77.73
45.64
20.18
1.42
-10.39
-15.72
-16.09
-13.85
-11.31
-10.03
-10.66
-13.13
-16.83
-20.10
-22.66
-24.53
-25.43
-25.05
-23.22
-20.47
-17.70
-15.14
-12.24
-8.55
-4.21
0.40
3.10
0.41
-11.31
-34.78
-64.62
-90.97
-105.80
-106.68
-94.86
-75.33
-48.57
-12.91
34.10
93.34
161.33
229.86
277.12
289.66
266.86
219.39
161.61
105.72
58.47
21.20
-8.22
-32.04
-51.33
-66.01
-77.54
-89.88
-107.46
-132.90
-161.70
-187.36
-203.25
-204.25
-189.78
-163.81
-132.59
-101.19
-71.94
-45.39
-21.95
-2.68
11.56
20.31
24.06
24.37
24.45
28.98
42.16
65.28
95.63
125.13
146.00
152.43
143.15
121.92
95.60
70.78
50.82
35.52
22.86
11.60
1.55
-6.41
-11.46
-13.45
-12.75
-9.60
-3.77
5.32
17.79
31.54
41.99
43.36
31.57
6.59
-27.43
-63.64
-94.80
-114.76
-119.59
-108.37
-83.45
-50.31
-16.84
8.25
17.93
9.39
-14.74
-45.06
-69.42
-79.93
-76.80
-66.20
-55.85
-50.52
-50.29
-52.07
-52.33
-49.34
-43.60
-36.63
-29.29
-21.49
-12.58
-2.16
9.28
21.70
34.86
49.27
65.96
85.82
108.31
128.90
143.20
147.85
142.42
129.23
112.23
94.45
77.42
61.07
44.87
29.37
15.88
6.05
0.68
-0.59
0.50
1.35
-1.13
-9.90
-26.67
-51.24
-80.39
-108.50
-127.64
-133.41
-125.34
-107.14
-84.49
-62.40
-43.53
-27.79
-13.81
-0.68
10.89
19.49
23.95
24.60
23.07
21.29
20.84
21.99
23.79
24.31
22.08
16.56
8.73
0.62
-5.49
-7.70
-5.21
1.58
11.20
21.90
31.96
40.29
46.22
49.37
49.63
46.59
39.94
29.51
15.62
-1.06
-19.07
-36.65
-52.24
-64.15
-71.48
-73.80
-71.15
-63.05
-50.91
-35.61
-17.89
1.26
21.05
40.62
59.11
75.68
89.61
100.01
106.31
108.12
105.17
97.57
85.73
70.40
52.72
34.14
15.85
-0.97
-15.32
-26.70
-34.88
-40.07
-42.75
-43.36
-42.55
-40.93
-38.86
-36.60
-34.35
-32.19
-30.18
-28.40
-26.70
-25.06
-23.45
-21.81
-20.10
-18.37
-16.97
-15.80
-14.89
-14.24
-13.76
-13.29
-12.62
-11.67
-10.56
-9.53
-8.88
-8.89
-9.54
-10.57
-11.50
-11.88
-11.49
-10.59
-9.74
-9.64
-10.80
-13.20
-16.26
-19.06
-20.71
-20.83
-19.84
-18.75
-18.82
-20.94
-25.15
-30.55
-35.56
-38.91
-39.89
-38.89
-37.14
-36.12
-37.05
-40.70
-47.22
-55.97
-65.13
-71.48
-71.11
-60.75
-39.72
-10.79
20.28
47.00
64.88
72.91
73.43
70.23
66.27
62.28
57.47
50.91
42.80
34.71
28.42
24.63
22.64
20.97
18.46
14.65
9.68
3.07
-5.89
-18.11
-33.31
-49.27
-62.26
-68.94
-68.27
-62.09
-53.59
-44.89
-35.35
-22.22
-3.07
21.44
46.84
66.52
74.73
70.25
56.70
40.21
26.22
16.97
11.16
5.82
-1.65
-11.97
-23.96
-35.81
-46.13
-54.77
-62.61
-71.16
-81.10
-92.21
-103.30
-112.53
-118.52
-119.87
-116.10
-107.36
-94.18
-77.04
-56.26
-32.08
-4.91
23.99
53.13
80.79
105.24
125.11
139.66
148.88
153.25
154.59
152.92
148.70
142.32
134.18
124.73
114.53
104.22
94.40
85.51
77.55
70.48
63.92
57.24
49.71
40.68
29.75
16.79
2.14
-13.74
-29.92
-45.24
-58.55
-68.88
-75.61
-78.63
-78.38
-75.48
-71.32
-67.49
-65.39
-65.97
-69.64
-76.11
-84.37
-92.87
-99.19
-101.39
-98.03
-88.10
-71.18
-47.69
-18.76
13.80
47.79
81.61
112.95
139.59
159.79
172.47
177.21
174.21
164.14
143.96
116.22
84.14
50.60
17.70
-13.14
-41.34
-66.73
-89.58
-110.20
-127.96
-142.78
-154.47
-162.91
-167.89
-170.13
-169.85
-167.44
-163.17
-156.48
-147.14
-134.88
-119.76
-101.98
-82.55
-62.97
-44.96
-29.68
-17.02
-6.24
3.89
14.40
25.95
37.94
49.00
57.54
62.94
66.32
70.41
79.33
94.65
118.62
152.02
193.26
237.81
278.92
309.34
323.35
318.49
295.89
259.98
215.99
168.11
118.54
67.55
14.31
-41.67
-99.29
-155.03
-202.77
-235.87
-250.05
-245.84
-229.63
-212.13
-204.82
-215.49
-245.51
-289.20
-336.20
-375.19
-397.07
-397.12
-375.29
-335.32
-283.08
-225.03
-167.02
-113.81
-68.90
-34.48
-11.14
2.60
10.45
17.42
28.13
45.06
67.55
92.43
115.82
134.99
149.53
161.33
173.37
188.45
208.08
232.31
259.93
289.16
318.42
347.11
375.71
405.14
435.95
467.36
497.07
521.62
537.09
540.06
528.37
501.60
461.16
410.15
352.78
293.74
237.35
186.39
141.80
102.89
68.11
35.93
5.37
-24.23
-53.48
-83.28
-114.88
-149.39
-187.06
-226.98
-267.34
-306.05
-341.80
-374.15
-400.44
-416.65
-418.40
-402.92
-370.63
-324.88
-270.30
-211.85
-153.81
-99.74
-52.82
-15.64
10.63
26.76
34.43
36.00
33.21
26.90
16.76
1.31
-21.72
-54.68
-99.19
-155.33
-218.66
-281.90
-335.94
-372.32
-386.20
-378.17
-353.98
-322.06
-290.15
-262.45
-239.46
-219.12
-198.99
-177.96
-156.18
-133.90
-110.15
-82.46
-47.63
-3.78
48.54
106.29
164.51
218.22
264.04
301.07
330.54
355.04
377.31
399.66
423.52
448.40
471.50
487.96
491.87
478.34
445.87
397.41
339.98
282.28
230.95
188.83
155.12
127.02
101.82
78.06
55.15
32.53
8.85
-18.82
-53.53
-96.74
-147.54
-202.71
-257.70
-308.38
-351.81
-380.73
-388.59
-371.58
-330.88
-272.70
-205.60
-137.10
-72.59
-14.99
34.12
73.51
102.63
122.24
134.24
140.03
141.05
138.13
132.28
123.95
112.91
98.72
81.25
60.30
34.22
3.00
-33.74
-75.71
-123.91
-179.94
-244.38
-314.62
-384.23
-445.12
-488.08
-506.67
-498.44
-467.94
-424.20
-377.22
-334.31
-291.27
-246.93
-202.17
-167.90
-146.49
-137.25
-135.34
-136.51
-136.60
-132.55
-124.27
-112.64
-99.36
-84.70
-69.52
-54.46
-39.93
-25.85
-12.25
-0.43
8.60
14.31
17.90
20.34
22.63
25.45
29.40
34.50
39.69
43.82
46.08
46.78
46.20
44.72
42.67
40.48
38.49
36.74
35.45
35.06
36.48
40.22
46.31
54.22
63.12
72.05
80.23
87.50
94.33
101.79
110.85
122.03
135.16
149.58
164.33
178.62
192.13
205.08
218.29
233.06
250.97
273.37
300.55
330.96
360.88
385.23
399.16
399.89
387.76
365.99
339.16
311.33
284.68
259.33
234.17
208.00
180.29
151.40
122.28
94.23
68.84
47.74
32.32
23.00
18.81
17.56
16.45
13.01
5.97
-4.53
-17.38
-31.14
-44.60
-56.94
-67.54
-75.77
-81.09
-83.31
-82.92
-81.05
-79.04
-77.75
-77.06
-75.84
-72.57
-66.20
-56.79
-45.56
-34.28
-24.36
-16.20
-9.12
-1.87
6.81
17.63
30.79
45.93
62.37
79.00
94.37
106.79
114.83
117.85
116.24
111.23
104.12
95.45
84.52
69.68
49.29
22.78
-8.50
-41.49
-72.38
-97.88
-116.59
-129.53
-139.85
-151.52
-167.80
-189.80
-215.96
-242.49
-264.57
-277.79
-279.34
-268.59
-247.07
-218.06
-185.81
-154.80
-128.76
-109.83
-97.94
-90.58
-83.53
-72.20
-53.36
-26.50
5.90
39.03
67.60
87.65
97.91
100.05
97.62
94.63
93.91
96.42
101.31
106.88
111.57
114.69
116.47
117.71
119.34
122.05
126.13
131.38
136.94
141.12
141.64
136.15
123.27
103.80
80.93
59.50
44.24
37.60
38.34
41.70
41.05
30.56
7.71
-25.73
-64.27
-100.60
-128.21
-143.28
-145.46
-137.41
-123.12
-106.13
-88.17
-68.95
-46.80
-20.24
10.72
43.95
75.47
100.63
115.67
118.96
111.55
96.75
78.98
62.46
50.12
43.20
41.61
44.71
52.07
63.61
78.87
95.78
110.21
116.78
110.93
91.62
62.68
32.12
9.09
-0.01
5.56
20.45
35.60
42.04
34.48
12.77
-19.05
-55.28
-91.28
-124.65
-154.81
-181.67
-204.84
-223.62
-237.99
-249.19
-259.11
-268.88
-277.29
-280.88
-275.87
-261.03
-239.33
-217.34
-202.02
-196.81
-199.63
-203.64
-200.82
-185.96
-159.11
-125.28
-92.12
-66.65
-52.68
-50.00
-54.98
-62.37
-67.18
-66.30
-59.26
-48.03
-35.89
-25.72
-18.63
-13.45
-7.40
2.26
16.78
35.00
53.73
69.08
78.09
79.88
76.07
70.07
65.80
66.35
72.94
84.65
98.86
111.99
120.40
121.03
111.73
91.39
60.18
19.93
-25.57
-70.67
-108.76
-133.97
-142.85
-135.63
-116.15
-90.68
-65.83
-46.76
-35.92
-33.02
-35.72
-40.81
-45.23
-46.90
-45.06
-40.27
-34.15
-28.85
-26.30
-27.56
-32.29
-38.74
-44.27
-46.17
-42.50
-32.75
-17.97
-0.52
16.46
29.72
36.40
34.40
22.74
1.94
-25.68
-55.92
-83.33
-102.41
-109.21
-102.63
-84.78
-60.13
-33.77
-9.65
10.43
26.72
40.60
53.40
65.58
76.50
84.92
89.55
89.45
84.43
75.03
62.55
48.89
36.17
26.27
20.30
18.38
19.55
22.19
24.48
25.07
23.59
20.96
19.38
21.81
31.16
49.27
76.06
109.21
144.46
176.73
201.33
215.14
217.12
208.14
190.44
166.92
140.58
114.18
90.15
70.31
55.69
46.38
41.59
40.06
40.46
41.88
43.84
46.30
49.39
53.15
57.47
61.86
65.54
67.41
66.29
61.33
52.41
40.51
27.54
15.91
7.72
4.05
4.71
8.43
13.52
18.46
22.34
24.80
25.92
25.97
25.37
24.70
24.56
25.40
27.18
29.29
30.71
30.48
28.10
23.76
18.13
11.96
5.78
-0.17
-5.67
-10.32
-13.46
-14.37
-12.64
-8.35
-2.12
5.16
12.61
19.82
26.77
33.75
40.99
48.38
55.50
61.85
67.36
72.55
78.64
87.05
98.75
113.64
130.35
146.55
159.71
167.92
170.56
168.48
163.63
158.47
155.16
154.87
157.50
161.69
165.21
165.63
161.01
150.26
133.25
110.66
83.59
53.30
21.12
-11.77
-44.45
-76.41
-107.56
-137.93
-167.01
-193.44
-215.11
-229.98
-237.12
-237.46
-233.64
-229.10
-226.78
-228.18
-233.34
-241.47
-251.72
-263.81
-277.93
-294.34
-312.84
-332.28
-350.57
-364.91
-372.13
-369.27
-354.12
-325.71
-284.60
-232.81
-173.70
-111.99
-53.63
-5.18
27.51
41.15
36.80
19.92
-1.39
-19.71
-31.44
-38.12
-44.71
-56.13
-73.72
-93.74
-108.91
-112.16
-99.99
-74.00
-39.64
-3.08
31.72
64.38
97.30
132.69
169.67
202.67
222.57
220.37
191.60
139.60
75.45
14.61
-28.63
-45.80
-36.17
-5.22
38.94
88.56
137.35
179.64
209.36
220.08
206.97
169.01
110.02
37.65
-38.86
-110.82
-171.15
-214.30
-235.95
-233.53
-207.38
-161.51
-102.83
-39.32
22.34
77.77
124.31
159.77
181.77
188.60
180.96
163.33
143.24
128.81
125.42
133.66
149.49
166.29
177.74
179.92
171.93
154.97
130.89
100.87
65.22
24.04
-21.67
-68.92
-112.75
-147.41
-168.26
-173.36
-164.15
-144.49
-118.89
-90.84
-62.17
-33.41
-4.98
21.83
44.81
61.67
71.23
74.18
72.99
70.91
70.72
73.69
79.22
85.23
88.94
87.83
80.34
66.15
46.14
22.24
-2.99
-26.66
-46.10
-59.51
-66.49
-68.26
-67.37
-66.95
-69.66
-76.71
-87.17
-97.72
-103.49
-99.37
-81.89
-50.98
-10.76
31.14
65.91
86.72
91.58
84.14
72.32
65.06
68.66
84.44
108.60
133.91
152.49
158.07
147.21
119.35
76.17
21.15
-40.71
-102.98
-158.58
-200.97
-225.78
-232.12
-223.03
-204.45
-183.26
-164.77
-150.87
-139.34
-125.02
-102.01
-66.38
-18.29
37.48
92.45
136.76
162.04
163.56
141.30
99.49
45.20
-13.41
-68.66
-114.23
-145.84
-161.50
-161.52
-148.21
-124.92
-95.15
-61.56
-25.74
11.50
49.40
86.69
121.41
151.30
174.63
190.94
201.46
208.96
217.02
228.92
246.45
269.07
293.93
316.77
333.46
341.41
340.46
332.55
320.68
307.59
294.82
282.25
268.53
251.61
229.68
202.02
169.52
134.99
102.64
76.89
60.70
54.47
55.54
58.96
59.34
52.79
38.53
19.05
-0.97
-16.70
-24.82
-24.62
-17.97
-8.36
0.23
4.43
2.17
-7.23
-23.49
-45.42
-71.13
-98.26
-124.19
-146.52
-163.61
-174.98
-181.59
-186.03
-191.06
-198.56
-208.85
-220.70
-232.14
-241.39
-247.61
-251.26
-254.86
-260.55
-269.23
-280.07
-291.12
-300.35
-306.74
-310.61
-313.63
-320.20
-334.35
-358.76
-393.99
-438.00
-486.31
-532.36
-568.44
-587.39
-587.12
-568.47
-534.77
-490.34
-439.16
-384.48
-328.79
-274.15
-207.22
-124.27
-29.67
65.48
148.96
213.16
256.26
280.42
289.24
286.43
272.67
249.61
220.28
188.35
159.02
136.40
122.49
117.04
118.41
122.59
126.65
129.54
132.05
136.60
145.10
158.26
174.04
189.88
202.34
209.49
211.30
209.35
206.68
205.78
207.96
213.60
222.85
235.57
252.53
275.23
299.75
322.53
340.21
350.67
353.06
346.61
328.71
295.31
243.19
172.72
90.20
6.12
-68.21
-124.64
-160.37
-177.65
-181.25
-175.78
-164.34
-148.38
-129.46
-110.10
-93.33
-81.33
-74.25
-70.18
-66.47
-61.20
-54.08
-46.53
-40.69
-38.16
-39.03
-41.91
-44.48
-44.30
-39.47
-28.93
-12.59
8.39
31.70
53.98
71.39
80.64
80.15
70.82
55.91
39.95
26.93
18.85
15.14
13.35
10.71
5.48
-2.36
-11.64
-21.05
-29.92
-38.32
-46.50
-54.26
-60.41
-63.35
-61.78
-55.49
-45.54
-34.14
-23.87
-16.77
-13.30
-11.94
-9.75
-3.56
8.41
25.77
45.90
64.79
78.21
82.74
76.29
58.36
30.30
-4.51
-40.89
-72.77
-94.43
-103.03
-99.19
-86.39
-69.39
-52.28
-37.49
-25.94
-17.32
-11.09
-6.75
-3.70
-1.38
0.71
2.78
4.97
7.16
9.64
12.74
16.67
21.22
25.35
27.34
25.42
18.65
7.50
-5.77
-17.79
-25.28
-26.42
-21.18
-11.86
-1.55
7.62
14.50
18.95
20.96
20.36
17.55
13.96
12.20
14.50
20.92
27.30
26.80
13.46
-13.32
-46.64
-74.89
-87.40
-80.48
-59.76
-37.70
-25.91
-28.90
-42.33
-56.30
-62.53
-58.72
-49.18
-40.83
-37.83
-39.93
-42.08
-39.14
-28.56
-12.61
4.66
20.68
36.25
54.27
77.01
103.52
127.25
141.66
141.48
125.67
97.40
62.92
28.76
-0.09
-20.72
-32.27
-34.37
-28.75
-18.91
-9.95
-7.08
-12.95
-25.94
-39.55
-45.12
-35.37
-9.09
27.75
64.96
92.97
106.84
107.61
100.43
90.90
82.75
76.23
68.48
56.04
36.28
8.17
-27.71
-68.50
-109.55
-145.03
-165.88
-168.99
-156.34
-133.32
-105.44
-76.42
-47.76
-19.53
8.09
33.26
52.10
61.14
58.44
45.10
24.95
2.93
-15.59
-26.86
-30.57
-30.87
-33.60
-43.93
-63.63
-90.61
-119.77
-143.80
-155.05
-148.55
-123.88
-77.99
-13.27
65.14
149.63
225.08
272.31
282.23
260.87
222.14
179.11
139.45
106.43
79.75
57.84
39.67
25.96
16.98
11.45
7.06
1.87
-4.53
-11.82
-19.80
-28.51
-38.49
-51.80
-70.84
-95.86
-123.80
-145.55
-154.78
-149.11
-130.56
-103.98
-75.20
-48.78
-26.86
-9.69
3.25
11.55
14.88
13.70
9.83
5.69
3.31
3.84
7.03
11.54
15.20
16.49
15.14
12.14
9.07
7.36
7.64
9.62
12.23
14.10
14.60
14.12
13.94
15.50
19.67
26.25
33.93
40.74
44.89
45.60
43.02
38.07
31.63
23.87
13.90
0.81
-15.60
-34.02
-51.75
-65.43
-72.73
-73.54
-69.69
-63.75
-57.13
-50.11
-42.26
-33.63
-25.08
-17.64
-11.07
-3.57
7.31
22.55
39.49
51.87
52.31
36.72
7.83
-24.58
-47.43
-49.88
-28.04
13.52
63.94
110.92
142.59
154.00
148.14
131.53
109.83
86.25
61.76
36.78
13.22
-5.57
-16.15
-17.95
-14.17
-11.60
-17.30
-35.29
-63.86
-95.71
-118.51
-123.94
-109.42
-78.95
-40.95
-3.81
27.26
51.25
69.88
85.58
98.84
108.62
113.04
110.54
100.82
84.81
64.51
42.15
20.34
0.19
-17.75
-33.42
-46.93
-58.25
-67.13
-73.19
-76.08
-75.79
-73.12
-69.03
-64.70
-61.33
-59.80
-60.38
-62.59
-65.19
-66.77
-66.63
-64.52
-61.08
-57.48
-55.00
-54.55
-56.62
-61.23
-67.77
-74.55
-78.47
-75.60
-62.73
-39.27
-8.24
24.44
52.22
70.71
79.33
80.89
79.42
77.82
76.52
74.17
69.06
60.86
50.98
41.65
34.74
30.86
29.82
30.90
32.71
33.51
31.04
23.41
10.25
-6.24
-21.94
-32.13
-33.88
-27.31
-15.41
-2.36
8.59
16.22
21.14
24.43
26.50
26.32
22.46
14.12
1.90
-12.25
-25.78
-36.06
-41.30
-40.56
-33.89
-21.94
-5.82
13.01
32.66
50.90
65.38
73.98
75.21
68.39
53.67
31.98
5.00
-24.94
-55.01
-81.93
-102.31
-113.09
-112.47
-100.17
-78.09
-49.81
-19.97
6.57
25.39
32.97
27.41
9.29
-16.43
-42.33
-59.89
-63.18
-51.56
-29.89
-6.53
10.70
17.91
16.28
10.06
3.88
-0.37
-3.90
-9.27
-18.30
-30.71
-44.06
-54.99
-62.05
-63.71
-59.74
-50.23
-34.75
-13.14
13.31
40.94
64.05
76.47
76.05
65.08
49.40
35.76
28.86
29.72
36.30
45.12
53.14
59.21
63.12
65.06
65.58
65.53
65.80
67.36
70.80
74.44
76.13
73.00
62.18
42.16
13.32
-21.54
-57.07
-86.19
-103.40
-106.55
-98.09
-84.24
-71.94
-66.02
-67.08
-72.02
-75.31
-72.31
-60.58
-40.12
-15.31
9.42
29.96
44.08
52.81
59.70
68.70
81.84
97.25
109.81
112.97
104.00
84.43
59.59
35.28
14.79
-2.11
-17.79
-34.31
-51.09
-65.41
-74.57
-77.43
-75.43
-72.15
-71.39
-75.31
-83.85
-93.39
-99.16
-96.98
-84.16
-60.13
-26.53
12.68
51.34
81.88
98.14
97.37
81.71
57.86
34.27
17.84
11.20
12.29
16.56
19.91
20.65
19.85
20.11
23.31
29.48
37.17
44.02
48.25
49.47
47.23
41.29
30.79
14.65
-7.44
-33.34
-58.56
-77.33
-85.13
-80.55
-66.98
-50.73
-37.31
-30.00
-28.47
-30.21
-31.94
-31.42
-27.98
-21.71
-12.62
-0.17
16.01
35.76
57.24
77.98
95.42
107.57
113.81
114.50
110.49
101.01
87.37
70.01
49.29
26.23
2.56
-19.46
-37.81
-51.52
-60.93
-67.44
-73.12
-79.60
-87.12
-94.98
-100.72
-101.66
-95.44
-80.46
-56.27
-24.76
9.53
39.96
59.42
63.97
54.40
36.34
17.70
5.33
1.96
5.72
12.14
17.19
19.32
19.67
20.60
23.87
29.54
36.17
41.79
45.21
46.61
47.10
48.06
50.36
53.11
54.45
52.12
44.13
29.78
9.76
-14.37
-40.96
-68.60
-95.22
-118.23
-133.74
-137.90
-128.67
-107.30
-78.63
-49.36
-25.44
-9.58
-1.09
3.37
7.02
11.48
16.49
20.56
22.46
21.85
19.43
15.98
11.96
7.25
1.74
-4.18
-9.58
-12.87
-12.47
-7.49
1.90
14.31
27.49
38.82
45.95
47.54
43.28
33.87
20.71
5.54
-10.06
-24.82
-38.26
-50.08
-60.55
-70.01
-78.59
-86.20
-91.50
-92.89
-88.64
-77.73
-60.00
-36.73
-10.04
17.68
44.17
68.12
88.66
105.39
118.34
127.96
135.02
140.36
144.02
143.15
135.60
118.49
90.82
55.18
17.77
-13.95
-34.26
-41.59
-38.80
-30.82
-22.52
-16.39
-12.11
-8.08
-3.14
2.54
7.66
10.97
12.55
13.43
15.32
19.91
27.97
38.80
50.55
60.60
66.27
65.89
58.95
46.24
29.49
10.65
-8.89
-28.16
-46.95
-65.29
-82.93
-99.35
-114.07
-126.96
-138.07
-147.34
-152.73
-151.22
-139.78
-117.11
-85.35
-49.91
-17.78
5.43
17.43
19.92
16.82
11.98
7.57
3.79
-0.18
-4.99
-10.37
-15.54
-20.00
-24.00
-28.42
-33.97
-40.71
-47.52
-52.69
-54.03
-49.98
-40.11
-25.25
-7.19
11.75
29.22
43.12
51.66
53.53
48.10
35.74
18.09
-1.97
-20.73
-34.53
-40.77
-38.41
-28.16
-11.98
7.93
29.47
51.40
73.03
93.65
111.91
126.44
136.39
141.86
143.52
141.76
135.75
123.30
102.49
73.25
38.54
3.76
-25.51
-46.03
-58.02
-64.04
-66.21
-63.74
-53.07
-30.68
2.92
41.09
72.76
87.30
79.97
54.45
20.99
-8.60
-26.53
-31.88
-29.12
-24.29
-20.97
-18.96
-15.58
-8.41
2.68
15.43
26.53
33.51
35.82
34.65
31.67
27.85
22.88
15.43
4.11
-11.53
-30.07
-48.60
-63.46
-71.76
-72.22
-65.55
-53.99
-40.31
-26.93
-15.22
-5.85
0.86
4.39
3.87
-1.53
-12.37
-28.25
-48.72
-72.38
-96.57
-117.09
-128.98
-128.07
-113.00
-86.43
-54.62
-25.26
-4.38
6.02
8.18
6.76
6.17
8.61
14.09
21.17
28.40
35.11
41.10
46.18
49.69
50.46
47.50
40.38
29.63
16.58
2.76
-10.57
-22.84
-33.93
-44.11
-53.69
-62.68
-70.78
-77.43
-81.76
-82.90
-80.11
-72.56
-59.50
-40.68
-16.65
10.80
38.92
64.69
85.64
100.42
109.30
113.80
115.95
117.93
120.56
124.22
128.41
131.50
130.65
122.67
105.17
78.25
45.09
10.99
-18.35
-39.45
-52.10
-58.67
-61.91
-63.12
-61.71
-56.57
-47.82
-37.76
-30.16
-28.16
-32.48
-40.97
-50.01
-56.41
-57.93
-53.37
-41.80
-22.82
2.35
29.92
53.99
68.32
69.37
58.10
39.58
20.25
4.71
-6.49
-16.11
-27.49
-41.21
-54.06
-59.80
-53.07
-32.88
-4.53
21.71
34.64
28.25
5.29
-23.42
-43.80
-45.78
-28.32
0.05
26.05
37.91
31.59
11.56
-13.32
-34.84
-49.98
-59.49
-66.12
-71.12
-73.23
-69.17
-56.21
-34.10
-5.68
24.13
50.36
69.38
80.15
83.91
83.48
81.69
80.45
80.85
83.13
87.54
93.83
101.70
110.55
119.10
125.75
128.42
125.67
114.74
97.34
75.19
50.80
27.08
6.49
-9.60
-22.86
-36.41
-53.71
-76.31
-102.89
-128.50
-144.86
-146.77
-133.06
-106.92
-74.22
-40.65
-9.40
18.47
43.20
64.86
82.03
92.84
95.93
91.52
81.15
67.13
51.37
34.94
18.48
1.53
-15.99
-33.43
-49.24
-61.67
-69.26
-71.80
-70.25
-66.57
-63.08
-61.25
-61.33
-62.39
-63.04
-62.12
-59.51
-55.93
-52.84
-51.74
-53.13
-56.36
-59.90
-62.25
-62.45
-60.61
-57.76
-55.36
-54.73
-56.77
-61.82
-69.40
-77.85
-83.91
-83.35
-72.56
-50.52
-19.93
13.24
41.94
61.47
70.55
71.54
68.47
64.60
60.99
56.87
50.97
43.23
35.29
29.47
27.34
28.55
30.75
30.76
26.10
15.99
1.79
-13.64
-27.21
-36.47
-39.79
-36.48
-26.67
-11.69
5.62
21.03
30.13
30.11
21.50
8.50
-3.07
-8.38
-5.87
2.45
12.68
21.17
26.34
28.79
30.07
31.32
32.68
33.50
33.23
31.85
29.82
27.58
25.77
24.55
24.02
24.42
26.11
29.35
34.03
39.38
44.35
48.26
50.80
52.47
54.34
57.08
60.05
61.34
58.03
47.57
29.03
3.30
-27.33
-60.07
-92.16
-120.71
-141.93
-151.44
-147.18
-129.41
-103.95
-80.07
-65.80
-63.09
-66.06
-64.01
-47.68
-14.97
27.68
68.25
95.89
105.49
99.82
86.10
70.92
56.96
43.21
28.04
11.11
-5.18
-17.12
-21.97
-19.90
-13.85
-8.16
-6.73
-10.89
-19.40
-29.32
-37.41
-42.05
-43.86
-44.88
-47.44
-52.73
-59.54
-65.09
-65.86
-58.70
-41.86
-15.69
17.07
51.14
79.59
96.20
97.46
84.32
62.04
38.18
19.38
8.92
5.82
6.74
8.43
9.39
10.24
12.43
16.55
21.48
24.92
24.75
20.51
13.93
7.93
5.41
7.68
13.90
21.54
27.61
30.10
28.96
26.31
25.31
28.69
36.90
47.99
57.80
61.89
57.10
42.65
19.59
-10.01
-43.25
-76.35
-104.50
-122.01
-124.68
-112.58
-91.07
-69.43
-55.92
-53.23
-56.88
-58.00
-48.54
-25.94
5.51
37.41
61.86
74.71
76.88
72.21
64.04
53.67
40.91
25.77
9.28
-6.49
-19.38
-28.10
-32.98
-35.34
-36.93
-39.52
-44.09
-50.54
-58.18
-65.53
-71.13
-73.49
-71.37
-64.15
-51.77
-34.47
-12.55
13.70
43.52
74.70
103.16
123.24
129.53
119.39
94.87
62.36
30.25
5.55
-8.57
-13.32
-12.52
-10.06
-7.95
-6.17
-3.96
-1.18
1.18
1.64
-0.57
-4.96
-9.79
-13.12
-13.55
-11.24
-7.69
-4.96
-4.71
-7.42
-12.18
-17.10
-20.24
-20.51
-18.28
-15.07
-12.90
-13.19
-16.22
-20.96
-25.44
-28.01
-27.80
-25.30
-21.85
-19.00
-17.78
-18.83
-22.14
-26.95
-31.40
-32.34
-25.91
-8.89
19.38
55.92
94.42
127.38
148.96
156.94
152.77
140.08
122.49
101.53
78.95
55.32
31.72
10.15
-7.29
-19.50
-26.91
-31.28
-34.56
-37.95
-41.54
-44.47
-45.52
-43.99
-40.38
-36.19
-33.43
-33.71
-37.39
-43.61
-50.69
-56.77
-60.69
-62.33
-62.31
-61.16
-58.92
-54.72
-47.13
-34.87
-17.19
5.77
32.94
62.48
91.38
115.36
129.58
130.15
116.13
90.78
60.99
34.24
16.63
10.36
13.67
22.74
33.82
44.79
55.24
65.03
73.08
77.48
76.08
67.76
53.22
34.61
14.67
-4.05
-20.42
-34.72
-47.89
-60.83
-73.61
-85.37
-94.73
-100.82
-103.11
-102.75
-101.91
-102.72
-106.45
-112.99
-119.97
-124.26
-123.05
-114.59
-99.22
-78.99
-56.74
-35.51
-18.03
-6.40
-1.73
-3.51
-9.04
-13.69
-13.20
-5.03
9.94
27.51
42.18
49.72
49.12
42.69
34.20
26.72
21.13
16.38
10.92
4.14
-2.93
-8.60
-11.80
-13.00
-14.02
-17.29
-24.57
-35.83
-49.00
-60.88
-67.95
-67.78
-59.82
-45.38
-26.90
-6.67
13.79
34.11
54.39
74.76
95.03
114.64
132.86
148.86
161.32
167.93
165.60
152.14
126.84
92.55
55.42
22.66
-0.23
-11.39
-12.83
-8.70
-2.86
2.65
7.64
12.97
19.09
25.45
30.97
34.77
36.94
38.21
39.35
40.69
41.74
41.56
39.04
33.51
24.83
13.35
-0.37
-15.89
-32.59
-50.07
-67.63
-84.36
-99.09
-110.92
-119.39
-124.68
-127.50
-128.84
-130.41
-133.18
-138.11
-144.90
-151.65
-154.85
-150.39
-135.76
-111.56
-82.32
-54.69
-35.08
-26.84
-29.10
-37.71
-47.53
-54.59
-57.10
-55.07
-48.99
-38.91
-24.20
-4.35
20.14
47.18
73.69
96.54
113.34
123.28
127.10
126.78
124.75
122.86
122.43
122.84
122.87
121.22
117.27
111.24
104.31
97.97
93.24
90.69
90.40
92.38
96.26
100.76
103.11
99.42
86.12
61.95
29.45
-5.46
-35.64
-55.71
-64.26
-63.87
-59.26
-54.51
-51.38
-49.14
-46.02
-40.85
-33.90
-26.57
-20.36
-15.97
-12.78
-9.43
-4.34
3.20
12.44
21.51
27.84
29.18
24.30
13.23
-3.16
-23.72
-47.09
-71.15
-92.62
-107.13
-110.59
-101.10
-80.41
-53.76
-28.08
-8.66
2.05
5.16
3.81
1.10
-1.48
-4.05
-7.28
-11.31
-15.01
-16.97
-16.40
-13.69
-10.42
-8.55
-9.69
-14.22
-21.35
-29.44
-36.89
-42.74
-47.03
-50.57
-54.38
-58.98
-63.58
-66.34
-64.83
-56.97
-41.87
-20.30
5.36
31.69
55.63
75.20
89.90
100.43
108.02
113.87
118.93
124.16
129.52
134.44
137.01
134.15
122.66
101.04
70.87
36.98
5.70
-17.60
-30.45
-33.98
-31.61
-26.86
-21.85
-16.89
-11.40
-5.14
1.34
7.16
11.82
15.95
20.95
28.20
38.15
49.75
60.59
67.84
69.41
64.61
54.29
40.35
24.85
9.17
-5.95
-20.54
-34.78
-48.40
-60.73
-71.18
-79.37
-84.83
-86.63
-84.11
-76.57
-65.02
-52.56
-43.47
-41.62
-48.66
-63.08
-80.03
-94.15
-101.30
-99.68
-89.83
-73.38
-52.12
-28.03
-3.21
20.02
39.13
52.70
60.46
63.48
63.05
60.42
55.66
48.28
37.60
23.59
6.40
-13.71
-35.73
-57.12
-73.39
-79.70
-72.97
-54.77
-32.92
-16.05
-12.15
-23.74
-45.90
-68.28
-80.34
-75.78
-53.83
-21.33
14.07
46.59
73.61
94.65
109.88
118.22
118.14
108.63
89.92
64.40
35.10
5.39
-22.47
-47.89
-71.89
-95.73
-119.27
-140.18
-153.50
-154.11
-139.59
-112.19
-78.68
-48.11
-28.04
-21.69
-27.46
-40.36
-54.96
-67.54
-77.05
-83.19
-85.80
-83.99
-76.48
-62.51
-42.51
-18.28
7.60
32.24
53.76
71.40
85.25
95.81
103.55
108.57
110.68
109.57
105.35
98.80
91.04
83.71
77.43
72.63
69.12
66.34
63.48
60.08
56.15
52.00
48.02
44.57
41.89
39.91
38.36
36.87
35.27
33.65
32.17
31.03
30.42
30.52
31.41
33.03
35.25
37.90
40.89
44.42
47.92
51.03
53.48
54.82
54.69
52.76
48.83
42.81
34.72
24.66
12.22
-1.48
-15.93
-30.59
-44.97
-58.56
-70.98
-81.84
-90.87
-97.70
-101.98
-103.63
-102.54
-98.66
-92.06
-83.15
-72.46
-60.67
-48.40
-36.20
-24.63
-14.05
-4.65
3.53
10.36
15.76
19.63
21.99
23.11
23.38
23.31
23.34
23.81
24.57
25.10
24.68
22.68
18.96
13.88
8.35
3.41
0.14
-1.11
-0.55
1.26
3.91
7.38
12.15
18.98
28.40
40.47
53.78
65.97
74.55
77.78
75.21
67.79
57.52
46.74
38.12
33.33
33.29
37.73
44.76
50.63
50.48
40.11
15.75
-18.39
-54.11
-82.63
-98.24
-100.16
-92.03
-79.30
-66.39
-55.21
-45.10
-35.31
-25.96
-18.15
-13.19
-11.49
-12.19
-13.57
-13.74
-11.24
-6.24
0.05
6.15
11.07
14.82
18.32
22.92
29.81
39.49
51.21
63.42
74.14
81.60
84.75
83.27
77.35
67.52
54.37
38.48
20.70
2.22
-15.67
-31.63
-44.60
-54.13
-60.43
-64.24
-66.44
-67.73
-68.42
-68.37
-67.27
-65.00
-61.97
-59.11
-57.45
-57.67
-59.61
-62.50
-65.05
-66.25
-65.59
-63.50
-61.00
-59.16
-58.83
-60.54
-64.65
-70.99
-78.25
-83.55
-82.89
-72.62
-51.43
-21.93
10.63
39.45
59.24
68.31
68.58
64.05
58.37
53.36
48.94
44.26
38.93
33.63
29.60
27.67
27.59
28.14
27.87
25.62
21.37
15.99
10.81
6.97
4.94
4.30
4.06
3.06
0.50
-3.70
-9.10
-14.87
-20.30
-24.98
-28.95
-32.41
-35.56
-38.36
-40.38
-41.12
-39.96
-36.56
-31.01
-23.80
-15.64
-7.28
0.64
7.76
13.86
18.92
22.93
25.93
27.94
29.06
29.49
29.52
29.44
29.46
29.64
29.85
29.87
29.51
28.70
27.59
26.45
25.63
25.31
25.43
25.72
25.80
25.43
24.66
23.88
23.69
24.67
27.09
30.81
35.23
39.67
43.60
46.84
49.57
52.21
55.22
59.03
64.12
70.75
78.82
87.31
94.17
96.69
92.43
80.50
62.13
40.41
18.99
0.81
-12.82
-22.12
-27.97
-31.16
-32.00
-30.59
-26.96
-22.00
-17.10
-13.53
-11.67
-10.92
-10.18
-8.64
-6.36
-4.43
-4.55
-8.11
-15.69
-26.71
-39.72
-52.76
-63.99
-72.12
-76.78
-78.61
-79.03
-79.81
-82.46
-87.66
-94.98
-102.96
-109.54
-112.74
-111.17
-104.35
-92.68
-77.25
-59.67
-41.76
-25.19
-11.06
0.26
9.17
16.63
23.71
31.25
39.50
48.11
56.31
63.18
67.87
69.79
68.68
64.63
58.14
49.95
40.95
32.02
23.84
16.85
11.21
6.95
3.98
2.22
1.48
1.46
1.70
1.66
1.01
-0.17
-1.24
-1.23
0.91
5.72
13.01
21.84
30.83
38.72
44.79
49.11
52.43
55.70
59.56
63.97
68.29
71.56
72.96
72.17
69.33
64.84
58.97
51.69
42.85
32.53
21.44
10.95
2.93
-0.99
0.08
5.98
15.64
27.53
40.22
52.66
64.13
74.05
81.52
85.37
84.32
77.36
63.88
43.62
16.41
-18.00
-59.73
-108.24
-161.61
-216.31
-267.71
-311.47
-345.07
-368.56
-383.98
-393.63
-398.28
-396.33
-384.64
-360.45
-323.29
-275.59
-221.72
-166.07
-111.46
-58.82
-8.38
38.97
80.80
113.81
135.31
144.65
143.88
137.03
128.66
122.39
120.00
121.35
125.02
129.12
131.97
132.69
131.29
128.59
125.85
124.28
124.41
125.86
127.37
127.26
124.16
117.48
107.70
96.05
84.03
72.84
63.07
54.65
46.89
38.76
29.12
16.94
1.69
-16.50
-36.54
-56.33
-73.05
-83.75
-86.18
-79.47
-64.68
-44.48
-22.58
-2.61
12.81
22.62
27.31
28.44
27.93
27.45
28.07
30.18
33.57
37.60
41.46
44.40
45.87
45.70
44.02
41.20
37.66
33.70
29.50
25.10
20.53
15.99
11.90
8.84
7.28
7.33
8.42
9.38
8.69
5.09
-1.93
-11.69
-22.32
-31.21
-35.80
-34.37
-26.61
-13.74
1.85
17.45
30.80
40.59
46.69
49.77
50.87
50.91
50.45
49.79
49.18
49.00
49.71
51.51
54.08
56.49
57.40
55.60
50.48
42.31
32.20
21.79
12.79
6.76
4.73
6.79
11.65
16.44
17.14
9.87
-7.52
-34.17
-66.09
-97.31
-122.03
-136.50
-139.89
-134.01
-121.92
-106.59
-90.18
-73.84
-58.21
-43.80
-31.10
-20.68
-13.02
-8.35
-6.47
-6.63
-7.27
-6.34
-1.87
7.18
20.23
35.02
48.43
57.70
61.34
59.64
54.35
47.92
42.61
39.95
40.32
43.07
46.65
48.67
46.70
38.94
25.08
6.60
-13.55
-31.88
-45.35
-52.11
-52.24
-46.66
-36.44
-22.10
-3.85
17.78
41.38
64.87
85.98
101.88
110.66
111.97
107.28
99.40
91.33
85.27
82.26
82.05
81.26
75.45
60.32
33.43
-5.14
-53.11
-106.27
-158.79
-204.03
-238.73
-262.77
-279.53
-294.59
-313.73
-341.47
-379.51
-426.04
-460.77
-464.85
-427.61
-353.92
-260.75
-166.17
-81.25
-9.13
51.60
103.27
144.37
172.13
184.51
182.58
170.99
156.13
143.79
137.66
138.82
143.95
148.38
148.20
142.13
132.25
122.39
116.28
115.86
121.33
128.97
133.79
131.38
119.35
97.71
67.93
32.24
-6.29
-42.45
-70.79
-86.37
-86.66
-73.07
-50.96
-27.82
-10.35
-1.77
-1.18
-5.26
-10.45
-14.86
-18.61
-22.58
-27.07
-30.76
-31.49
-27.63
-19.23
-8.11
3.01
11.35
15.47
15.76
14.07
12.82
13.94
18.02
24.07
30.17
34.33
35.47
33.92
31.18
29.24
29.95
34.42
42.97
55.11
69.39
83.08
92.61
94.34
86.31
69.68
48.92
30.47
20.42
22.27
34.63
53.64
73.54
88.88
96.38
95.54
87.92
76.06
62.50
49.25
37.93
29.37
23.56
19.72
16.66
12.98
7.75
0.83
-6.80
-13.19
-16.23
-14.35
-7.21
4.10
17.44
30.35
40.82
47.91
51.86
53.68
54.75
56.29
59.13
63.58
69.44
75.84
81.31
84.01
82.19
74.92
62.55
46.60
29.16
12.10
-3.49
-17.46
-30.03
-41.38
-51.13
-58.37
-62.14
-61.95
-58.19
-51.99
-44.96
-38.62
-34.17
-32.31
-33.18
-36.32
-40.55
-44.11
-45.05
-41.98
-34.68
-24.26
-12.88
-2.83
4.20
7.65
8.01
6.37
3.93
1.68
0.30
0.15
1.25
3.25
5.54
7.32
8.01
7.31
5.29
2.29
-1.28
-5.10
-8.84
-12.27
-15.22
-17.68
-19.82
-21.90
-24.02
-25.97
-27.21
-27.20
-25.79
-23.59
-21.87
-22.10
-25.20
-30.90
-37.74
-43.60
-46.62
-45.98
-42.20
-36.68
-31.08
-26.50
-23.18
-20.61
-18.00
-14.65
-10.16
-4.58
1.79
8.46
14.83
20.37
24.64
27.41
28.71
28.84
28.18
27.30
26.50
26.10
26.44
27.64
29.46
31.16
31.75
30.43
27.14
22.26
16.63
11.24
6.67
2.90
-0.71
-4.91
-10.12
-15.95
-22.05
-27.67
-31.82
-33.68
-32.99
-30.23
-26.28
-21.97
-17.62
-15.12
-15.82
-19.82
-25.68
-31.19
-34.48
-34.60
-31.55
-25.84
-22.25
-24.76
-34.45
-48.63
-62.64
-72.40
-75.64
-71.71
-61.21
-52.18
-52.69
-67.49
-96.13
-134.89
-179.85
-228.45
-279.21
-331.26
-392.33
-468.91
-562.18
-666.04
-770.69
-867.53
-951.58
-1020.80
-1022.53
-922.92
-721.35
-456.50
-182.40
60.46
254.62
399.30
501.72
571.73
610.78
620.37
605.14
575.34
541.87
512.32
489.65
473.77
463.66
451.84
432.11
402.03
363.66
320.57
275.54
228.50
177.82
122.08
57.80
-14.80
-89.76
-155.84
-200.95
-217.30
-204.56
-169.07
-120.68
-70.86
-27.55
6.78
34.62
60.59
88.50
119.36
151.27
179.92
198.85
202.07
186.60
154.38
112.18
68.86
31.97
5.17
-12.05
-22.56
-29.02
-32.40
-32.62
-30.15
-27.11
-26.54
-30.06
-35.84
-38.69
-32.63
-14.65
12.45
40.33
58.35
58.31
38.29
3.80
-34.31
-64.05
-76.64
-69.32
-45.35
-11.64
24.49
57.94
86.42
109.31
125.71
133.61
130.74
116.74
95.24
73.53
60.25
61.95
80.12
110.70
145.84
177.23
198.93
208.68
207.07
195.86
176.43
149.40
115.57
77.05
37.56
1.50
-27.35
-47.12
-58.43
-63.66
-66.04
-68.69
-74.24
-84.60
-100.79
-122.54
-147.92
-173.88
-197.23
-216.27
-231.56
-246.06
-264.07
-289.11
-321.77
-358.52
-392.02
-412.90
-413.01
-388.46
-341.54
-280.44
-216.38
-159.96
-117.76
-91.03
-76.39
-68.94
-64.46
-60.65
-56.97
-53.00
-47.39
-37.62
-21.38
1.80
29.72
58.06
82.66
101.18
113.25
118.78
115.88
100.32
67.74
17.48
-44.41
-105.38
-150.86
-170.17
-161.29
-131.19
-92.00
-55.67
-29.62
-15.75
-12.17
-15.92
-24.31
-35.39
-47.09
-56.45
-60.03
-54.90
-39.93
-16.29
12.79
43.42
72.74
100.01
126.66
154.86
185.44
216.22
241.92
255.81
252.71
231.65
197.10
157.85
124.05
103.93
101.15
114.21
137.53
163.52
184.70
195.46
192.95
177.29
151.35
119.99
89.05
64.13
49.11
45.20
50.90
62.95
77.77
92.62
106.15
118.04
128.31
136.17
139.88
137.27
126.90
109.01
85.68
60.19
35.84
15.40
0.05
-10.35
-16.65
-19.50
-18.91
-14.62
-6.74
3.58
15.30
26.24
33.84
36.14
33.03
26.46
19.71
15.96
17.01
25.33
40.80
60.88
81.60
99.58
113.50
124.39
134.73
147.17
167.38
197.78
236.62
278.93
319.67
356.54
390.46
423.83
457.77
495.27
533.65
564.99
579.50
570.66
538.77
490.41
434.99
348.81
223.78
68.27
-94.51
-239.73
-352.48
-429.49
-474.84
-495.86
-500.55
-490.89
-469.25
-439.58
-407.32
-377.40
-352.36
-332.28
-315.91
-302.03
-285.93
-264.63
-238.94
-212.44
-189.50
-173.50
-166.43
-168.97
-180.03
-193.78
-202.98
-200.12
-181.29
-148.40
-108.46
-70.95
-44.20
-32.07
-31.74
-36.84
-41.41
-42.57
-41.22
-40.14
-41.53
-45.59
-50.50
-53.47
-51.96
-45.34
-34.36
-20.42
-4.32
13.55
32.21
49.19
60.57
62.44
51.53
29.96
4.17
-17.76
-29.90
-30.63
-22.53
-10.82
0.75
9.47
13.81
12.59
4.62
-11.22
-34.77
-63.22
-91.04
-111.21
-117.87
-108.26
-83.70
-49.47
-14.09
12.92
23.79
14.74
-13.06
-54.46
-101.84
-145.43
-174.39
-180.70
-161.44
-119.17
-60.76
4.69
67.69
116.43
140.17
135.03
105.61
61.56
12.52
-34.52
-75.51
-108.88
-134.14
-152.52
-164.39
-169.92
-169.52
-163.79
-153.22
-138.34
-119.91
-100.38
-81.72
-64.80
-49.71
-36.15
-23.20
-9.24
7.81
29.37
54.90
81.44
103.86
115.86
112.47
92.79
61.34
26.73
-1.56
-16.93
-17.62
-6.46
11.11
29.73
46.21
60.02
72.15
83.79
95.37
106.82
117.94
128.62
138.64
147.46
153.97
156.74
154.66
147.74
137.54
126.79
118.44
114.65
116.20
122.48
131.91
142.56
152.33
159.22
161.36
157.26
146.37
129.52
109.00
87.94
69.22
54.40
43.27
34.23
25.44
16.04
6.73
-0.61
-4.02
-2.86
1.54
6.24
8.05
5.00
-2.79
-13.51
-24.96
-36.00
-47.30
-60.97
-79.12
-102.43
-129.35
-156.50
-179.94
-196.46
-204.44
-203.71
-195.14
-180.06
-160.04
-136.97
-113.25
-91.45
-73.82
-61.52
-54.22
-50.22
-47.13
-42.68
-35.47
-25.15
-12.29
2.07
16.79
30.95
43.90
55.29
65.14
73.75
81.60
89.22
96.73
103.69
109.04
111.41
109.84
104.26
95.79
86.31
77.78
71.35
67.15
64.51
62.58
60.92
59.59
58.84
58.55
57.99
55.94
51.36
43.92
34.18
23.33
12.53
2.54
-6.40
-14.24
-20.77
-25.45
-27.58
-26.78
-23.16
-17.39
-10.41
-3.03
4.22
10.96
16.75
20.94
22.76
21.84
18.47
13.64
8.63
4.39
1.10
-1.77
-4.90
-8.44
-11.65
-13.11
-11.41
-5.80
3.33
14.70
26.66
37.88
47.74
56.24
63.78
70.89
78.18
86.35
96.23
108.64
124.11
142.56
163.17
184.47
204.64
221.99
235.33
243.97
247.58
245.72
237.55
221.90
197.71
164.74
124.19
78.80
32.30
-11.53
-49.91
-81.56
-106.72
-126.51
-142.53
-156.47
-170.18
-185.73
-204.90
-228.26
-254.24
-278.89
-297.22
-305.29
-302.31
-291.11
-277.05
-265.48
-259.59
-259.55
-263.45
-269.07
-275.36
-282.45
-290.58
-298.82
-304.70
-305.14
-297.93
-282.82
-261.49
-236.51
-210.09
-183.43
-156.99
-131.20
-107.03
-86.09
-69.81
-58.66
-51.76
-46.99
-41.85
-34.19
-22.77
-7.36
11.31
31.83
52.44
71.44
87.66
100.81
111.58
121.35
131.64
143.50
157.19
172.09
186.85
199.73
208.80
212.44
209.55
200.03
184.81
165.73
145.15
125.33
107.98
93.94
83.23
75.22
68.86
62.91
56.12
47.39
36.02
22.05
6.41
-9.11
-22.30
-31.20
-34.82
-33.54
-29.04
-23.72
-19.89
-19.01
-21.37
-26.14
-31.72
-36.28
-38.18
-36.29
-30.06
-19.52
-5.36
11.17
28.35
44.26
57.18
66.02
70.54
71.32
69.37
65.66
60.86
55.16
48.55
41.01
32.74
24.01
15.00
5.58
-4.59
-15.77
-27.81
-39.87
-50.60
-58.46
-62.27
-61.54
-56.56
-48.33
-38.27
-27.96
-18.94
-12.41
-9.11
-9.18
-12.02
-16.49
-21.27
-25.21
-27.79
-29.21
-30.21
-31.77
-34.67
-39.15
-44.83
-50.81
-55.88
-58.95
-59.21
-56.39
-50.74
-42.82
-33.36
-23.09
-12.59
-2.18
8.08
18.36
29.03
40.30
51.95
63.15
72.48
78.61
80.99
80.17
77.69
75.38
74.35
74.65
75.31
75.13
73.39
70.24
66.43
62.91
60.42
59.29
59.62
61.37
64.36
67.95
71.07
72.28
70.26
64.37
54.84
42.85
30.07
18.20
8.49
1.59
-2.48
-4.04
-3.63
-1.83
0.75
3.50
5.78
7.03
6.85
5.03
1.64
-3.04
-8.44
-13.69
-17.81
-19.94
-19.74
-17.46
-13.84
-9.68
-5.46
-1.31
2.76
6.45
9.00
9.46
7.24
2.53
-3.57
-9.49
-13.80
-15.68
-15.15
-12.77
-9.41
-5.88
-2.89
-1.01
-0.62
-1.91
-4.80
-8.97
-13.86
-18.83
-23.25
-26.73
-29.27
-31.28
-33.51
-36.77
-41.67
-48.34
-56.39
-65.00
-73.10
-79.64
-83.68
-84.60
-82.28
-77.21
-70.48
-63.57
-57.92
-54.60
-54.12
-56.37
-60.72
-66.11
-71.15
-74.23
-73.94
-69.57
-61.47
-51.14
-40.82
-32.94
-29.39
-31.00
-37.14
-45.54
-52.41
-52.94
-42.47
-17.71
22.11
75.03
137.02
203.52
271.04
337.92
403.70
467.52
526.60
575.72
608.42
619.31
606.30
571.76
521.82
464.23
405.85
351.06
301.47
257.08
217.57
183.08
154.05
130.46
111.25
94.43
77.90
60.38
42.12
24.68
10.05
-0.52
-7.25
-11.84
-16.72
-24.04
-34.99
-49.43
-66.24
-83.85
-100.66
-115.41
-127.18
-135.44
-140.08
-141.46
-140.34
-137.71
-134.52
-131.34
-128.43
-125.81
-123.44
-121.38
-119.72
-118.56
-117.85
-117.48
-117.22
-117.01
-116.94
-117.15
-117.75
-118.65
-119.46
-119.57
-118.39
-115.49
-110.85
-104.84
-98.08
-91.18
-84.55
-78.39
-72.66
-67.27
-62.16
-57.33
-52.85
-48.80
-45.31
-42.56
-40.68
-39.79
-39.81
-40.56
-41.72
-43.01
-44.11
-44.85
-45.07
-44.70
-43.82
-42.50
-40.93
-39.30
-37.73
-36.28
-35.00
-33.99
-33.33
-33.22
-33.74
-34.87
-36.45
-38.10
-39.36
-39.77
-39.01
-37.06
-34.28
-31.26
-28.69
-27.03
-26.41
-26.63
-27.34
-28.19
-28.98
-29.66
-30.16
-30.41
-30.31
-29.95
-29.79
-30.52
-32.84
-37.19
-43.48
-51.24
-59.81
-68.59
-77.14
-85.10
-92.23
-98.39
-103.76
-108.92
-114.67
-121.56
-129.45
-137.27
-143.48
-146.76
-146.80
-144.49
-141.36
-138.64
-136.38
-133.36
-127.51
-117.30
-102.06
-81.84
-57.00
-27.74
5.59
42.19
80.61
118.87
155.25
189.39
222.22
254.72
285.89
311.85
326.68
325.25
306.09
272.17
231.06
192.08
162.67
145.49
137.74
133.18
125.53
110.53
84.95
48.90
5.09
-42.36
-89.93
-136.22
-181.97
-227.77
-273.96
-323.73
-377.36
-431.29
-478.63
-511.96
-526.58
-521.47
-497.33
-458.87
-420.18
-394.19
-388.17
-400.60
-423.29
-446.62
-463.67
-470.27
-470.64
-483.00
-524.18
-601.88
-710.44
-834.70
-958.13
-1068.37
-1156.58
-1154.69
-1020.26
-752.05
-398.88
-31.16
297.30
563.32
751.17
885.74
984.10
1043.98
1059.39
1028.66
959.48
867.05
768.57
680.31
618.24
588.92
583.54
586.94
582.52
558.64
511.39
443.72
363.33
281.86
206.75
137.89
73.63
13.60
-39.78
-83.26
-116.09
-140.78
-159.55
-174.24
-184.62
-186.67
-175.96
-151.62
-119.17
-89.63
-75.19
-83.17
-114.48
-164.09
-223.10
-282.07
-332.92
-369.47
-387.60
-384.87
-360.73
-317.78
-261.76
-201.00
-144.59
-99.88
-70.32
-54.59
-47.52
-42.40
-33.74
-19.30
-0.62
18.28
33.00
41.02
42.72
40.89
39.07
39.74
43.31
48.34
52.85
55.59
56.89
58.39
62.25
70.00
81.97
97.46
115.27
134.24
153.02
169.99
183.01
189.90
189.54
182.69
172.17
161.68
154.23
150.89
150.97
153.42
158.17
166.58
180.32
199.51
221.46
241.10
253.13
254.62
246.63
233.83
222.50
217.76
221.44
231.56
243.32
251.03
250.00
237.77
214.39
182.14
144.55
105.46
68.14
34.59
5.29
-20.79
-45.58
-70.97
-97.76
-125.09
-150.70
-171.74
-185.86
-191.93
-190.13
-181.59
-167.85
-150.77
-132.40
-114.69
-98.97
-85.15
-71.20
-53.66
-28.90
5.08
47.29
93.57
137.74
173.48
196.27
204.31
198.43
181.26
156.11
126.15
94.15
62.56
33.46
8.50
-11.34
-26.10
-36.76
-44.90
-52.03
-58.90
-65.06
-69.08
-68.91
-62.74
-49.74
-30.38
-6.61
18.35
40.50
55.99
62.11
58.15
45.90
29.32
13.23
1.58
-4.16
-5.28
-4.88
-6.04
-10.19
-16.58
-23.12
-27.90
-30.55
-32.50
-36.13
-43.37
-54.62
-68.52
-82.64
-94.71
-103.43
-108.75
-111.28
-111.43
-108.86
-102.59
-91.73
-76.40
-58.39
-40.67
-26.08
-15.99
-9.42
-3.40
5.56
19.78
39.16
61.18
81.98
97.81
106.24
106.71
100.18
88.56
74.05
58.91
45.30
35.27
30.49
31.73
38.58
49.33
61.47
72.37
80.08
83.84
84.19
82.75
81.47
82.03
85.11
90.14
95.58
99.60
101.01
99.78
97.11
94.79
94.14
95.28
96.94
97.16
94.41
88.46
80.45
72.34
65.93
62.03
60.25
59.36
57.94
55.05
50.54
44.92
39.09
33.88
29.78
26.92
25.06
23.88
23.11
22.91
23.85
26.74
32.16
40.05
49.53
59.02
66.79
71.48
72.65
70.89
67.65
64.73
63.53
64.34
65.85
65.27
59.25
45.41
23.80
-2.53
-28.46
-48.79
-60.43
-63.78
-62.32
-61.07
-64.44
-74.63
-91.33
-112.43
-135.33
-158.00
-179.40
-199.13
-216.88
-231.96
-243.23
-249.71
-251.08
-248.14
-242.49
-235.65
-228.05
-218.43
-204.24
-182.88
-153.14
-116.06
-74.69
-32.97
5.62
38.87
65.78
85.93
98.89
104.03
100.97
90.21
73.47
53.52
33.45
15.90
2.45
-6.56
-11.85
-14.74
-16.64
-18.80
-22.07
-26.89
-33.37
-41.48
-51.37
-63.56
-78.90
-98.22
-121.60
-147.64
-173.01
-192.74
-201.20
-193.76
-168.23
-125.88
-71.33
-11.51
45.71
92.97
124.23
135.51
125.60
96.64
54.20
6.32
-38.27
-72.70
-93.63
-101.70
-100.33
-93.65
-84.73
-74.82
-63.70
-50.67
-35.39
-18.01
1.08
21.64
43.58
66.68
90.20
112.72
132.42
147.55
157.02
160.70
159.25
153.80
145.54
135.52
124.74
114.29
105.28
98.58
94.46
92.30
90.84
88.67
84.83
79.13
72.06
64.52
57.47
51.75
47.83
45.74
44.76
43.51
40.33
33.95
24.15
11.96
-0.78
-12.31
-21.66
-28.97
-35.12
-40.98
-46.90
-52.46
-56.81
-59.18
-59.11
-56.64
-52.14
-46.24
-39.76
-33.62
-28.58
-24.91
-22.25
-19.61
-15.91
-10.45
-3.38
4.28
11.16
16.07
18.56
18.83
17.47
15.01
11.65
7.32
1.90
-4.59
-11.93
-19.76
-27.74
-35.28
-41.43
-44.78
-43.61
-36.59
-23.56
-5.93
13.49
31.36
45.01
53.20
56.30
55.72
52.96
49.09
44.61
39.83
35.29
31.91
30.71
32.42
37.10
44.10
52.13
59.59
64.83
66.54
64.06
57.63
48.52
38.72
30.38
25.14
23.56
25.09
28.31
31.62
33.70
33.87
31.98
27.99
21.66
12.33
-0.82
-18.18
-39.20
-62.03
-83.82
-101.51
-112.98
-117.70
-116.82
-112.43
-106.45
-99.73
-91.88
-81.93
-69.18
-53.84
-37.05
-20.25
-4.41
10.25
24.02
37.07
48.81
57.93
62.91
62.81
57.72
48.85
37.97
26.78
16.52
7.90
1.26
-3.31
-6.13
-8.03
-10.20
-13.67
-18.59
-23.76
-26.96
-25.90
-19.55
-9.03
2.71
12.08
16.37
14.83
8.71
0.33
-8.05
-15.01
-20.07
-23.13
-23.96
-22.14
-17.30
-9.60
0.12
10.49
20.34
29.07
36.83
44.17
51.43
58.37
64.14
67.73
68.49
66.64
63.29
60.01
58.24
58.62
60.91
64.06
66.86
68.34
68.05
65.85
61.71
55.44
46.76
35.63
22.48
8.27
-5.61
-17.74
-26.95
-32.53
-34.28
-32.54
-28.10
-22.25
-16.76
-13.81
-15.72
-24.39
-40.61
-63.35
-89.57
-114.71
-133.83
-143.10
-140.76
-127.45
-105.55
-78.17
-48.25
-18.21
9.93
34.26
52.96
64.70
69.06
66.78
59.61
49.71
39.07
29.03
20.30
13.14
7.72
4.21
2.71
3.05
4.54
6.20
6.96
6.10
3.49
-0.48
-5.11
-9.62
-13.32
-15.70
-16.43
-15.55
-13.51
-11.26
-9.96
-10.58
-13.22
-16.95
-20.03
-20.72
-18.28
-13.55
-8.71
-6.26
-7.91
-13.66
-21.86
-30.21
-36.79
-40.98
-43.42
-45.41
-48.08
-51.96
-56.92
-62.34
-67.32
-70.59
-70.45
-64.92
-52.38
-32.32
-6.03
23.38
51.77
75.08
90.47
96.98
95.43
87.75
76.08
62.08
46.76
30.79
14.95
0.38
-11.56
-19.67
-23.42
-23.02
-19.45
-14.12
-8.54
-4.09
-1.66
-1.52
-3.23
-5.73
-7.73
-8.28
-7.13
-4.81
-2.31
-0.58
-0.26
-1.64
-4.80
-9.66
-15.90
-22.70
-28.66
-32.16
-31.76
-27.03
-18.79
-9.02
-0.18
5.70
7.73
6.40
3.15
-0.15
-1.91
-1.17
2.40
8.72
17.47
28.19
40.20
52.55
64.17
74.01
81.32
85.69
87.14
86.00
82.83
78.44
73.69
69.26
65.27
61.18
55.99
48.64
38.57
25.90
11.38
-3.93
-18.97
-32.82
-44.82
-54.66
-62.60
-69.56
-76.84
-85.44
-95.54
-105.95
-114.50
-118.80
-117.19
-109.31
-96.05
-79.14
-60.58
-42.42
-26.57
-14.63
-7.53
-5.16
-6.22
-8.66
-10.43
-10.20
-7.72
-3.50
1.84
8.00
15.05
22.86
30.61
36.67
39.11
36.60
29.06
17.78
4.86
-7.39
-17.14
-23.23
-25.27
-23.51
-18.83
-12.65
-6.60
-2.16
-0.09
-0.29
-1.90
-3.85
-5.18
-5.32
-3.93
-0.92
3.52
8.85
14.07
18.08
20.00
19.67
17.69
15.33
14.03
14.87
18.23
23.83
31.06
39.23
47.91
56.98
66.59
76.89
87.83
99.06
110.04
120.51
130.40
139.77
148.75
157.44
165.88
174.08
182.17
190.52
200.03
211.07
223.14
234.71
243.80
248.59
248.00
242.00
231.41
217.97
202.58
184.96
164.11
139.43
111.61
82.53
54.66
29.91
9.74
-6.59
-21.56
-38.22
-58.79
-83.88
-112.78
-144.03
-181.47
-223.61
-264.86
-297.85
-317.33
-322.05
-314.06
-296.84
-274.01
-248.76
-222.60
-196.85
-172.70
-151.04
-132.11
-115.40
-100.16
-85.69
-71.85
-58.08
-44.60
-32.07
-21.36
-12.85
-6.87
-3.65
-3.44
-6.70
-13.12
-22.36
-33.67
-46.24
-58.91
-70.37
-79.55
-85.75
-89.09
-89.11
-85.49
-77.62
-65.58
-50.17
-33.09
-16.91
-4.42
1.43
0.49
-7.68
-23.69
-48.30
-81.40
-120.35
-159.59
-191.86
-211.20
-214.11
-201.19
-176.23
-144.05
-108.15
-69.56
-28.29
16.77
59.86
92.32
107.64
105.53
91.24
71.68
52.92
38.16
29.00
23.78
21.92
23.87
30.32
41.58
54.85
66.93
74.56
75.12
66.69
49.73
26.47
-0.15
-27.27
-52.84
-75.42
-94.36
-109.94
-123.10
-134.16
-142.40
-146.53
-145.31
-138.47
-126.53
-110.91
-94.01
-78.61
-66.00
-55.86
-46.55
-35.79
-21.71
-3.39
19.47
46.03
71.58
93.74
112.33
129.04
146.25
165.89
188.96
216.45
247.80
280.81
312.32
338.00
353.35
355.44
344.81
326.12
307.53
294.79
287.70
280.22
263.16
229.02
175.92
108.63
29.41
-51.21
-120.82
-171.25
-201.43
-215.44
-217.96
-211.82
-198.38
-179.39
-156.69
-133.88
-115.01
-102.58
-96.29
-93.49
-90.75
-85.51
-76.94
-65.22
-52.20
-40.45
-31.79
-26.27
-22.40
-18.03
-11.40
-1.80
10.91
25.78
41.23
55.86
69.01
80.42
90.42
98.81
105.00
108.41
108.37
104.37
96.44
85.49
72.66
59.55
47.70
38.39
32.80
31.64
34.94
42.19
52.60
64.45
76.10
86.17
93.78
98.69
101.40
102.78
103.93
106.12
109.40
113.84
118.93
124.01
128.53
131.73
132.15
127.03
119.19
107.79
91.49
67.85
35.67
-4.45
-50.26
-99.19
-148.92
-197.39
-243.60
-285.82
-324.22
-357.10
-380.55
-389.75
-381.75
-357.13
-319.40
-274.89
-229.91
-194.17
-173.93
-170.59
-182.07
-205.76
-239.52
-281.07
-327.68
-375.87
-428.30
-485.98
-545.81
-600.30
-640.34
-657.99
-648.66
-613.18
-521.96
-373.54
-193.62
-20.80
117.51
214.87
278.84
320.05
345.65
359.27
357.21
338.35
307.31
272.49
241.60
218.43
202.90
192.17
182.64
168.40
147.55
123.67
104.05
95.68
102.45
125.21
161.17
204.79
246.30
276.11
287.15
276.32
244.77
198.20
149.58
108.11
82.24
75.69
87.20
111.17
139.63
164.34
174.93
168.09
145.38
112.07
73.53
33.88
-4.09
-38.25
-66.73
-88.03
-101.10
-107.06
-108.18
-107.35
-106.99
-108.22
-110.26
-111.68
-110.43
-105.07
-96.24
-85.80
-76.31
-69.96
-67.74
-68.86
-71.37
-72.80
-70.71
-63.77
-51.64
-34.78
-14.08
8.03
30.09
51.04
70.10
86.69
100.16
109.89
115.49
116.93
114.48
109.13
102.04
94.36
87.04
80.64
75.21
70.51
66.10
61.47
56.59
51.68
47.21
43.67
41.35
40.08
39.39
38.48
36.61
33.69
30.25
27.34
26.07
26.88
28.97
30.58
29.59
24.46
15.09
2.59
-11.25
-24.62
-35.85
-43.29
-44.98
-39.18
-25.78
-7.20
11.66
25.01
28.64
22.34
8.54
-8.05
-22.93
-33.72
-40.34
-43.60
-43.90
-40.82
-33.87
-23.62
-12.00
-1.73
4.98
7.46
6.55
3.42
-1.58
-9.44
-21.69
-39.11
-60.64
-83.34
-103.03
-115.36
-116.88
-105.67
-81.99
-48.85
-11.99
20.94
42.60
48.53
39.07
19.34
-2.80
-19.84
-27.27
-24.59
-14.48
-0.83
13.01
24.97
34.30
41.14
45.89
48.88
49.90
47.89
41.27
28.75
10.43
-11.27
-32.06
-47.23
-53.84
-52.20
-45.52
-38.05
-32.98
-31.03
-30.43
-28.88
-24.62
-17.52
-9.03
-0.97
5.94
12.45
20.18
30.30
42.35
54.18
62.93
66.41
64.25
58.12
50.80
45.02
42.45
43.32
46.80
51.73
57.05
61.96
65.58
66.66
63.68
55.45
41.78
23.94
4.48
-13.57
-27.64
-36.41
-40.06
-39.92
-37.79
-35.44
-34.19
-34.95
-38.23
-44.04
-51.81
-60.25
-67.55
-71.66
-71.00
-64.82
-53.68
-39.22
-23.72
-9.47
1.98
10.13
15.56
19.44
23.04
27.23
32.19
37.51
42.47
46.37
48.92
50.28
51.01
51.87
53.71
57.05
62.02
68.18
74.59
80.08
83.53
84.39
82.79
79.68
76.50
74.96
76.44
81.61
90.20
100.85
111.57
120.19
124.96
125.10
120.95
113.87
105.66
98.14
92.72
90.30
91.25
95.15
100.61
105.02
104.81
96.14
76.24
44.44
2.70
-45.08
-94.30
-141.04
-182.99
-219.36
-250.59
-277.84
-302.73
-326.81
-350.48
-371.93
-386.65
-388.47
-371.84
-334.35
-278.21
-209.62
-136.47
-65.74
-2.31
50.74
90.83
115.06
120.84
107.66
78.71
41.22
4.80
-21.79
-33.39
-29.91
-15.56
3.33
21.16
34.85
44.20
50.68
55.60
58.93
59.49
56.30
50.09
44.05
42.71
49.91
66.80
91.28
119.21
146.61
171.68
195.38
220.36
248.79
280.46
312.08
338.17
353.03
352.61
335.75
304.24
262.08
214.04
164.45
116.46
71.68
30.67
-6.60
-40.68
-72.52
-103.50
-134.93
-167.06
-198.07
-224.02
-239.99
-242.39
-231.29
-211.28
-190.49
-177.89
-180.41
-200.87
-237.46
-284.50
-333.71
-375.79
-401.99
-406.02
-386.00
-345.64
-293.73
-241.63
-199.35
-172.18
-158.91
-152.58
-143.46
-122.70
-85.26
-31.42
33.55
100.99
161.26
206.22
231.30
236.81
227.63
211.63
197.20
190.75
194.71
206.89
221.72
232.12
232.05
218.12
189.83
149.37
100.60
48.09
-3.67
-50.59
-89.35
-117.61
-134.46
-141.15
-140.70
-137.19
-134.93
-137.75
-148.32
-168.31
-198.06
-236.91
-284.13
-337.33
-391.35
-438.16
-468.68
-474.92
-453.27
-404.87
-335.24
-254.80
-174.10
-100.01
-34.73
22.25
72.86
117.27
155.55
188.27
213.42
230.19
241.32
252.02
266.05
284.09
300.23
306.73
297.21
264.34
205.62
126.16
36.53
-52.97
-134.26
-206.32
-269.73
-296.66
-269.12
-193.76
-98.43
-10.37
45.30
76.75
91.82
96.36
94.59
88.57
77.06
60.73
42.21
23.29
5.67
-12.36
-30.28
-44.41
-52.44
-52.48
-42.40
-21.72
5.76
33.79
53.63
60.95
58.22
51.14
47.13
53.29
73.65
107.59
151.60
199.23
244.56
282.34
306.29
310.17
290.60
249.26
193.32
134.39
83.95
49.80
32.98
26.75
19.86
2.59
-28.50
-68.62
-106.66
-130.62
-132.97
-113.87
-80.87
-45.20
-16.59
0.06
5.56
4.59
3.12
5.70
14.08
27.20
42.27
56.15
66.77
73.91
79.48
86.99
99.67
118.60
142.03
166.08
186.32
198.91
201.02
190.75
167.78
132.63
86.48
31.56
-28.11
-87.18
-140.76
-186.18
-223.02
-250.64
-268.17
-275.02
-271.62
-259.41
-240.47
-217.34
-192.18
-165.77
-135.34
-97.36
-50.53
3.01
59.27
114.91
168.12
218.56
253.74
262.44
243.77
208.07
167.28
128.26
93.60
63.70
38.02
16.02
-1.14
-11.92
-16.04
-14.45
-9.26
-1.60
7.89
18.82
31.56
47.68
68.22
91.85
114.75
132.73
143.60
148.01
145.20
137.42
127.48
116.13
101.08
78.38
45.32
2.78
-44.95
-91.94
-132.60
-163.78
-185.45
-199.82
-209.60
-216.46
-220.63
-221.36
-218.24
-212.15
-206.26
-204.87
-211.06
-224.19
-239.21
-248.74
-245.79
-226.14
-189.58
-140.17
-84.13
-27.45
25.48
71.36
106.32
126.87
132.29
126.14
115.56
109.63
116.50
140.19
178.16
219.96
251.27
259.82
239.43
190.72
120.14
37.66
-45.18
-109.52
-141.73
-143.04
-125.08
-99.17
-71.79
-45.44
-21.16
0.07
16.92
27.10
29.49
25.89
20.49
17.19
18.22
23.78
32.83
43.60
53.55
60.86
65.71
69.78
74.53
80.17
85.55
88.91
88.51
82.60
70.38
52.73
32.20
11.51
-7.50
-23.88
-37.19
-47.28
-54.47
-59.19
-61.67
-62.09
-61.05
-59.45
-58.08
-57.28
-56.85
-56.30
-55.18
-53.24
-50.71
-48.41
-47.40
-48.31
-50.98
-54.46
-57.34
-58.64
-57.96
-55.93
-53.75
-52.53
-52.98
-55.41
-59.90
-66.18
-73.18
-78.37
-78.09
-68.74
-48.67
-19.65
13.29
43.57
65.69
77.28
79.46
75.50
68.91
62.07
55.78
50.09
45.09
41.12
38.57
37.42
37.18
36.99
36.04
33.38
28.49
21.42
13.08
5.13
-0.43
-2.45
-1.27
1.42
3.24
2.68
-0.01
-2.57
-2.10
2.93
11.29
19.02
21.25
14.96
0.77
-16.89
-31.96
-39.39
-37.31
-27.31
-12.87
2.43
16.55
28.90
39.24
46.82
50.22
47.64
38.33
23.14
4.98
-11.82
-22.51
-23.64
-14.73
1.45
19.55
34.18
41.99
43.14
40.95
39.46
40.77
43.05
41.95
32.47
12.75
-14.33
-41.89
-61.78
-68.55
-61.58
-44.75
-23.77
-3.34
14.42
29.61
43.06
54.57
62.27
63.69
56.94
41.43
18.32
-9.41
-36.74
-57.92
-67.98
-65.08
-51.34
-32.14
-13.81
-0.61
6.68
9.70
9.90
6.64
-2.89
-21.12
-47.03
-75.00
-96.40
-102.90
-92.21
-68.18
-38.71
-11.77
7.94
20.34
28.50
36.19
45.52
56.03
65.86
72.92
75.99
75.30
72.57
69.38
66.63
63.90
59.25
50.34
35.45
14.18
-12.27
-41.57
-70.96
-97.06
-116.16
-124.74
-120.49
-103.74
-78.10
-49.48
-24.08
-6.03
4.53
9.93
13.09
15.37
15.84
12.14
2.84
-11.11
-26.23
-37.67
-41.57
-36.21
-22.68
-4.55
12.86
24.18
25.75
16.89
0.85
-15.85
-25.36
-21.56
-2.79
27.33
60.89
88.95
104.69
105.66
93.89
74.57
53.65
35.64
22.11
12.24
2.93
-8.82
-23.55
-39.11
-51.28
-55.93
-51.35
-39.21
-23.87
-9.92
0.12
6.80
12.80
20.43
30.12
39.83
46.36
47.45
43.10
35.84
29.67
28.39
33.59
44.45
57.89
69.82
76.68
76.80
70.37
59.61
47.41
35.75
25.19
14.53
1.75
-14.61
-34.93
-58.62
-84.15
-109.65
-132.75
-150.22
-157.90
-151.96
-130.47
-95.49
-54.39
-17.72
4.97
9.35
-1.42
-18.30
-30.52
-30.07
-16.08
6.66
30.69
50.52
63.44
69.22
68.23
59.87
42.83
16.66
-15.46
-46.61
-68.21
-73.80
-61.90
-37.27
-8.89
13.72
24.48
22.70
12.17
-1.24
-12.48
-18.82
-20.25
-18.48
-16.12
-15.66
-18.44
-24.64
-32.70
-40.01
-43.41
-40.39
-29.78
-12.07
10.95
36.23
59.74
77.40
85.77
84.23
75.12
63.00
52.37
45.78
43.03
41.11
36.60
26.99
12.14
-5.66
-21.54
-30.47
-29.07
-17.82
-2.27
8.83
7.52
-8.53
-33.82
-57.11
-67.64
-60.96
-41.25
-19.02
-4.52
-1.64
-5.74
-7.12
2.06
22.48
46.83
64.10
65.83
51.14
26.53
2.12
-13.81
-18.35
-13.89
-5.43
3.04
10.06
15.96
20.98
23.61
21.37
12.72
-0.85
-15.56
-26.17
-28.49
-22.25
-11.76
-2.68
0.56
-3.07
-10.44
-15.97
-14.67
-4.95
10.32
25.96
37.13
41.37
39.60
34.08
26.91
19.28
11.34
3.00
-4.92
-10.71
-12.57
-8.92
0.60
14.97
31.66
47.54
59.31
64.44
61.74
51.21
33.55
9.39
-20.61
-54.59
-88.66
-117.14
-133.82
-134.54
-119.53
-93.80
-65.48
-42.49
-29.38
-26.49
-30.67
-37.90
-45.23
-51.71
-57.69
-63.68
-69.46
-73.76
-75.69
-73.81
-67.34
-55.82
-39.22
-17.71
7.96
36.42
66.00
94.34
119.31
138.99
151.99
157.99
157.91
154.01
148.98
144.73
140.88
134.83
122.66
101.56
72.08
38.53
7.58
-14.87
-26.24
-28.32
-25.78
-23.82
-26.00
-33.03
-43.51
-55.19
-65.92
-72.75
-73.90
-68.47
-56.28
-38.40
-16.57
6.59
28.40
47.09
62.12
74.28
84.32
93.11
98.92
99.54
92.57
76.98
53.47
24.15
-8.08
-41.45
-74.08
-104.39
-130.09
-149.02
-160.35
-165.74
-171.67
-179.54
-188.21
-192.75
-186.27
-163.51
-125.83
-81.70
-43.06
-18.85
-8.90
-5.35
2.53
21.74
51.96
85.72
113.32
128.31
126.43
111.34
90.31
69.64
51.34
33.96
14.56
-8.35
-33.83
-59.47
-81.33
-96.87
-105.48
-109.35
-109.75
-107.41
-102.02
-92.14
-75.95
-51.06
-16.53
26.68
74.51
121.82
164.59
200.72
228.94
247.25
252.60
241.22
210.96
163.95
107.61
52.52
8.43
-19.28
-30.91
-30.91
-25.01
-17.74
-11.03
-4.72
1.88
8.52
14.05
17.41
18.46
18.10
17.76
18.84
22.15
27.96
35.54
43.68
51.10
56.65
59.50
59.49
56.23
49.90
41.44
31.47
20.39
8.09
-6.19
-23.44
-44.23
-67.35
-90.96
-111.89
-127.35
-135.93
-138.01
-136.13
-133.79
-133.68
-137.09
-144.84
-154.17
-162.85
-168.45
-167.87
-157.16
-133.09
-95.65
-50.48
-8.15
20.30
28.19
17.71
-0.71
-13.63
-11.70
5.90
31.81
55.80
71.08
76.80
77.47
78.65
82.97
88.62
91.23
86.74
73.06
53.13
31.16
10.66
-7.33
-23.77
-40.86
-60.46
-82.81
-106.07
-126.77
-141.84
-149.48
-150.74
-146.99
-140.26
-132.65
-125.43
-118.76
-111.83
-104.03
-95.32
-86.51
-78.44
-71.69
-66.86
-64.21
-63.34
-63.34
-63.38
-63.04
-62.61
-61.42
-58.89
-55.61
-52.99
-52.38
-54.27
-58.27
-63.04
-66.44
-68.34
-66.90
-61.91
-54.91
-47.92
-42.10
-37.47
-33.10
-27.77
-15.56
8.43
45.10
91.70
144.19
199.58
256.61
315.31
376.05
445.00
526.14
617.90
713.48
803.95
881.45
940.58
978.21
954.72
851.40
676.68
462.58
245.95
52.17
-108.35
-235.29
-333.13
-407.55
-457.69
-483.48
-488.54
-479.97
-464.43
-446.08
-426.15
-404.06
-378.50
-343.63
-295.53
-236.15
-172.51
-112.85
-63.39
-27.08
-4.06
7.27
12.25
15.30
18.42
21.36
23.00
22.49
19.81
15.41
10.05
5.80
3.94
4.44
6.31
8.28
9.47
9.57
8.74
7.48
6.81
7.37
9.15
11.61
14.03
15.84
16.83
17.08
17.17
17.65
18.89
20.94
23.50
26.13
28.35
29.90
30.82
31.71
33.33
36.40
41.38
48.08
55.43
61.46
64.29
60.62
48.54
27.77
0.05
-31.20
-61.62
-87.11
-104.47
-112.88
-113.47
-108.17
-99.15
-88.16
-76.47
-65.01
-54.55
-45.79
-39.25
-34.93
-32.02
-29.43
-26.18
-21.90
-16.90
-11.97
-7.98
-5.23
-3.27
-0.90
3.14
9.73
18.78
29.16
39.11
46.74
50.86
51.33
49.01
45.12
40.59
35.44
28.86
19.80
7.46
-7.81
-24.30
-39.31
-50.39
-55.97
-56.23
-53.05
-48.62
-45.21
-44.66
-47.86
-54.50
-62.70
-68.66
-67.20
-53.39
-25.10
14.32
55.92
87.78
99.70
87.77
56.36
16.05
-21.10
-46.56
-58.19
-59.41
-55.99
-52.72
-51.71
-52.78
-54.95
-57.35
-58.92
-58.15
-52.51
-39.26
-17.03
12.98
46.84
78.23
100.14
107.02
96.22
69.10
30.95
-10.96
-49.27
-78.95
-98.18
-107.36
-107.22
-97.76
-78.58
-50.80
-18.62
11.23
32.12
40.80
39.09
32.93
28.89
30.98
38.83
48.07
52.91
49.02
34.94
12.69
-12.98
-36.22
-51.63
-55.36
-47.76
-31.68
-11.21
10.08
30.43
49.34
66.53
81.26
92.03
97.48
97.75
94.54
90.03
85.67
81.48
75.80
66.26
51.14
30.16
5.16
-20.62
-44.00
-62.93
-76.97
-87.02
-94.83
-102.34
-111.21
-121.88
-133.47
-142.50
-144.39
-135.12
-113.30
-81.52
-45.94
-14.16
8.07
18.77
19.89
15.53
9.64
4.15
-1.05
-6.89
-13.77
-20.82
-26.59
-30.20
-32.16
-34.03
-37.69
-44.35
-53.49
-63.09
-70.24
-72.14
-67.31
-56.00
-39.85
-21.07
-1.47
18.21
37.92
58.26
79.50
100.87
120.48
135.96
145.47
148.39
146.18
140.67
134.32
129.20
126.61
127.06
130.20
134.38
136.40
132.05
117.39
91.10
55.67
16.97
-17.73
-42.83
-56.36
-60.25
-58.50
-54.86
-51.03
-46.91
-41.86
-36.03
-30.81
-27.92
-28.30
-31.20
-34.53
-35.91
-33.80
-28.40
-21.47
-15.38
-11.94
-11.55
-12.98
-13.98
-12.52
-7.76
-0.50
7.10
12.33
12.87
7.20
-5.13
-23.30
-44.75
-65.43
-80.31
-84.90
-77.63
-60.67
-39.51
-20.52
-8.43
-4.14
-5.38
-7.89
-8.50
-5.96
-0.89
5.07
10.90
16.47
22.56
29.62
37.52
45.32
51.73
55.68
56.52
54.38
49.49
43.13
36.41
30.17
24.85
20.35
16.24
11.57
5.59
-1.94
-10.84
-20.30
-29.23
-36.42
-41.11
-42.10
-38.48
-29.36
-15.18
1.51
16.33
24.27
21.94
9.86
-7.31
-23.01
-31.66
-31.22
-23.51
-12.68
-2.70
4.40
8.98
12.46
15.84
19.15
21.70
22.95
23.21
23.26
23.70
24.87
26.16
26.44
24.77
20.62
14.27
6.63
-1.33
-8.99
-16.21
-23.34
-30.71
-38.27
-45.54
-51.80
-56.27
-58.58
-58.70
-56.91
-53.90
-50.74
-48.64
-48.58
-50.27
-51.62
-49.15
-39.53
-21.55
2.60
26.85
44.45
50.63
44.77
30.29
13.00
-1.74
-10.60
-13.01
-9.79
-2.21
8.56
21.53
35.46
48.78
59.76
67.02
69.00
65.82
57.95
46.15
31.47
15.05
-1.70
-17.27
-30.14
-38.94
-42.12
-38.16
-26.21
-7.08
15.96
37.26
50.06
49.90
36.90
15.87
-5.65
-20.84
-26.41
-23.40
-15.70
-7.67
-1.79
1.68
3.70
5.18
6.28
6.64
6.06
5.10
4.55
5.30
7.79
11.59
15.86
19.83
23.13
25.67
27.73
29.12
29.37
27.68
22.85
13.57
-1.31
-22.03
-46.95
-71.81
-90.82
-98.35
-91.50
-71.90
-45.34
-19.57
-1.05
7.57
7.82
3.62
-1.09
-4.26
-6.00
-7.54
-9.80
-12.72
-15.37
-16.80
-16.84
-16.08
-15.53
-16.30
-18.95
-23.42
-29.23
-35.63
-41.70
-46.57
-49.42
-49.48
-46.23
-39.45
-29.33
-16.25
-0.71
16.78
35.63
54.86
73.58
91.14
107.25
121.93
134.89
144.64
148.24
142.07
124.15
94.82
58.38
21.67
-8.41
-27.69
-35.96
-36.28
-32.96
-29.21
-26.18
-23.41
-20.11
-16.26
-12.70
-10.49
-10.10
-11.09
-12.33
-12.68
-11.41
-8.65
-5.06
-1.51
1.31
3.16
4.16
4.81
5.77
7.69
10.95
15.80
22.09
29.26
36.28
41.78
44.34
42.96
37.37
28.10
16.27
2.95
-11.00
-25.08
-39.44
-54.20
-69.29
-84.47
-99.41
-113.48
-125.26
-132.52
-131.71
-120.26
-97.87
-67.50
-34.82
-6.05
14.46
25.78
29.99
30.55
29.74
27.86
23.96
17.47
9.49
2.70
-0.10
2.16
7.86
13.24
14.22
8.50
-3.11
-17.02
-28.31
-32.99
-29.21
-17.55
-0.08
20.41
41.10
58.93
70.63
73.79
68.59
58.92
51.39
52.03
62.30
77.38
87.83
84.41
63.33
28.75
-9.24
-39.59
-55.08
-55.87
-47.30
-35.77
-25.05
-15.35
-4.92
7.66
21.72
34.75
43.88
47.96
47.94
46.32
45.67
47.34
50.60
53.34
52.98
47.76
37.52
23.57
8.10
-6.91
-20.46
-32.55
-43.78
-54.72
-65.47
-74.95
-82.94
-89.17
-93.77
-97.42
-101.16
-106.11
-113.29
-123.05
-134.35
-144.37
-148.73
-143.05
-125.34
-97.49
-65.14
-35.65
-15.20
-6.45
-8.02
-15.93
-25.94
-35.20
-42.80
-48.57
-52.04
-51.98
-46.82
-35.68
-19.06
1.17
22.42
41.91
58.09
70.69
80.27
87.63
93.29
97.21
98.95
97.95
94.47
88.73
81.81
74.95
69.17
64.87
61.76
59.15
56.16
52.32
47.69
42.91
38.74
35.71
33.86
32.74
31.65
29.97
27.54
24.65
22.03
20.40
20.07
20.80
21.92
22.61
22.39
21.46
20.39
19.97
20.79
22.89
26.03
30.08
35.14
41.41
48.40
54.92
58.74
58.27
53.54
46.52
40.18
36.99
37.45
39.89
40.90
38.47
31.87
22.07
10.99
0.36
-8.90
-16.62
-22.84
-27.06
-28.37
-26.02
-20.38
-13.57
-9.46
-12.51
-25.72
-48.74
-77.17
-103.77
-121.31
-124.97
-115.33
-96.62
-74.46
-53.25
-34.78
-18.58
-3.55
11.02
24.55
35.74
43.78
48.73
51.28
52.30
52.19
50.59
46.57
38.97
27.01
10.96
-7.80
-27.43
-46.03
-62.11
-75.33
-85.10
-91.43
-94.45
-94.02
-90.14
-82.96
-72.97
-61.19
-48.72
-36.64
-25.92
-17.04
-9.99
-4.55
-0.49
2.92
5.73
8.53
12.22
17.59
25.25
35.27
46.85
58.38
67.86
73.44
74.03
69.46
60.47
48.19
34.00
18.86
3.44
-12.08
-27.87
-44.26
-61.73
-80.22
-98.15
-111.96
-116.79
-108.43
-85.82
-52.51
-15.84
15.56
35.58
42.59
39.62
31.99
24.24
18.17
13.26
8.67
4.34
1.25
-0.05
-0.97
-4.37
-13.15
-27.67
-44.97
-59.24
-65.74
-62.79
-52.35
-37.98
-22.00
-4.23
17.57
44.56
74.71
102.48
121.20
126.28
116.81
97.39
74.15
52.32
34.18
19.35
6.20
-6.19
-17.33
-25.88
-30.57
-31.66
-30.80
-30.19
-31.69
-35.92
-42.03
-48.30
-52.74
-53.80
-51.15
-45.41
-37.71
-28.95
-19.42
-8.86
3.09
16.40
30.38
43.57
54.33
61.41
64.47
64.11
61.65
58.48
55.71
54.21
54.48
56.43
59.07
60.44
58.23
50.96
39.06
25.22
13.72
8.62
11.97
22.95
38.78
56.18
72.59
86.51
97.12
103.64
105.18
100.65
89.60
73.15
53.78
34.43
17.37
3.47
-7.67
-17.17
-26.76
-37.94
-50.59
-62.95
-72.18
-75.89
-73.38
-66.25
-57.68
-51.89
-52.71
-61.37
-76.50
-95.26
-114.97
-134.45
-154.67
-172.36
-179.64
-172.11
-149.21
-114.49
-73.69
-32.29
6.09
39.89
69.03
93.75
114.03
130.19
142.76
152.48
159.99
165.80
170.49
174.42
177.41
178.69
177.94
175.26
171.25
166.70
162.53
159.72
158.60
159.23
161.12
163.70
166.30
168.16
168.17
164.57
159.60
153.62
146.73
138.88
130.18
120.91
111.50
102.35
93.84
86.31
79.46
73.17
67.36
61.95
56.77
51.61
46.17
40.24
33.92
27.09
20.20
13.97
9.02
5.53
3.00
0.46
-3.29
-9.09
-17.41
-27.81
-39.39
-51.20
-62.93
-75.18
-89.20
-106.25
-126.96
-150.93
-176.53
-201.84
-225.29
-246.58
-266.78
-287.74
-311.43
-339.41
-372.76
-412.04
-456.88
-505.11
-552.01
-590.73
-613.72
-615.11
-592.88
-549.43
-490.56
-423.10
-353.07
-285.09
-223.20
-171.98
-137.08
-124.07
-136.12
-171.61
-223.07
-278.31
-323.68
-348.22
-346.87
-321.58
