1623251775.00
64.000000
-0.00
-0.00
-0.00
-0.00
-0.00
-0.00
-0.00
-0.00
-0.00
-0.00
0.00
0.01
0.01
-0.00
-0.03
-0.05
-0.05
0.00
0.13
0.36
0.66
1.01
1.37
1.72
2.06
2.40
2.78
3.23
3.80
4.44
5.13
5.79
6.37
6.87
7.33
7.81
8.38
9.20
10.19
11.28
12.35
13.30
14.15
15.03
16.15
17.68
19.90
22.64
25.67
28.65
31.38
33.84
36.30
39.19
42.91
47.95
54.09
60.85
67.58
73.79
79.33
84.56
90.19
96.92
105.60
115.99
127.44
138.92
149.55
158.93
167.39
176.27
184.60
195.18
209.15
226.85
246.90
265.82
278.56
279.98
266.65
238.15
197.62
149.65
98.98
48.78
0.10
-47.56
-95.23
-143.61
-192.64
-241.13
-287.37
-328.65
-361.63
-383.06
-390.88
-385.13
-368.09
-343.66
-315.83
-287.77
-261.28
-237.04
-215.16
-195.66
-178.50
-163.37
-149.58
-136.11
-122.17
-107.56
-92.77
-78.73
-66.42
-56.32
-48.24
-41.45
-35.04
-28.36
-21.26
-14.05
-7.26
-1.42
3.19
6.62
9.14
11.15
13.03
15.00
17.13
19.31
21.32
22.94
24.02
24.53
24.57
24.32
23.97
23.63
23.36
23.09
22.76
22.31
21.69
20.92
20.03
19.09
18.15
17.28
16.55
15.97
15.52
15.15
14.78
14.37
13.92
13.48
13.05
12.64
12.21
11.74
11.26
10.82
10.50
10.30
10.20
10.14
10.05
9.92
9.78
9.64
9.50
9.31
9.03
8.65
8.22
7.83
7.55
7.37
7.26
7.14
6.96
6.74
6.52
6.35
6.21
6.08
5.86
5.55
5.19
4.89
4.73
4.76
4.92
5.10
5.17
5.05
4.76
4.35
3.94
3.60
3.39
3.25
3.11
2.89
2.55
2.11
1.67
1.31
1.11
1.07
1.12
1.17
1.16
1.06
0.87
0.59
0.21
-0.25
-0.76
-1.25
-1.63
-1.89
-2.01
-2.07
-2.10
-2.13
-2.14
-2.11
-2.05
-2.02
-2.07
-2.22
-2.39
-2.52
-2.50
-2.32
-2.02
-1.68
-1.38
-1.15
-0.95
-0.72
-0.43
-0.07
0.30
0.62
0.84
0.96
0.99
0.96
0.91
0.85
0.80
0.78
0.78
0.78
0.75
0.65
0.51
0.39
0.41
0.62
1.01
1.45
1.79
1.94
1.93
1.87
1.88
2.03
2.30
2.60
2.86
3.05
3.17
3.25
3.29
3.26
3.14
2.93
2.68
2.46
2.35
2.37
2.50
2.66
2.78
2.79
2.68
2.45
2.18
1.94
1.76
1.68
1.69
1.77
1.91
2.07
2.21
2.25
2.17
1.93
1.62
1.34
1.25
1.38
1.67
1.96
2.08
1.93
1.56
1.13
0.83
0.76
0.90
1.11
1.25
1.24
1.08
0.87
0.71
0.66
0.72
0.84
0.95
1.01
1.02
1.00
0.96
0.91
0.86
0.82
0.83
0.90
1.00
1.08
1.07
0.93
0.66
0.34
0.08
-0.05
0.00
0.18
0.41
0.60
0.73
0.83
0.96
1.18
1.47
1.77
1.98
1.98
1.76
1.39
1.03
0.82
0.83
0.99
1.17
1.24
1.14
0.93
0.72
0.59
0.53
0.48
0.36
0.15
-0.09
-0.24
-0.23
-0.07
0.18
0.43
0.58
0.60
0.46
0.19
-0.16
-0.51
-0.77
-0.84
-0.67
-0.32
0.10
0.45
0.62
0.59
0.45
0.34
0.35
0.52
0.76
0.97
1.07
1.05
0.96
0.87
0.79
0.71
0.61
0.49
0.40
0.39
0.48
0.61
0.70
0.67
0.50
0.24
-0.03
-0.22
-0.31
-0.30
-0.24
-0.16
-0.06
0.03
0.09
0.11
0.09
0.04
0.04
0.14
0.35
0.60
0.80
0.81
0.61
0.27
-0.08
-0.29
-0.28
-0.11
0.14
0.33
0.42
0.42
0.42
0.47
0.56
0.65
0.65
0.59
0.52
0.57
0.79
1.13
1.44
1.57
1.42
1.04
0.59
0.22
0.02
-0.05
-0.11
-0.24
-0.46
-0.66
-0.74
-0.65
-0.43
-0.20
-0.07
-0.07
-0.17
-0.27
-0.30
-0.26
-0.19
-0.11
-0.04
0.05
0.24
0.54
0.89
1.19
1.33
1.25
1.00
0.66
0.35
0.11
-0.07
-0.21
-0.33
-0.42
-0.44
-0.40
-0.32
-0.26
-0.27
-0.33
-0.40
-0.42
-0.36
-0.25
-0.11
0.01
0.13
0.26
0.43
0.62
0.79
0.90
0.93
0.87
0.74
0.57
0.40
0.25
0.16
0.15
0.18
0.22
0.24
0.22
0.19
0.19
0.26
0.37
0.51
0.65
0.77
0.88
0.94
0.93
0.77
0.46
0.04
-0.36
-0.57
-0.51
-0.20
0.23
0.61
0.82
0.82
0.66
0.44
0.25
0.12
0.04
-0.01
-0.01
0.03
0.13
0.27
0.39
0.44
0.36
0.16
-0.10
-0.33
-0.45
-0.43
-0.29
-0.11
0.05
0.12
0.14
0.15
0.18
0.23
0.26
0.21
0.03
-0.22
-0.46
-0.57
-0.47
-0.19
0.16
0.41
0.45
0.27
-0.02
-0.26
-0.32
-0.19
0.05
0.27
0.38
0.39
0.36
0.37
0.43
0.48
0.42
0.22
-0.06
-0.31
-0.39
-0.27
-0.02
0.22
0.30
0.20
0.00
-0.16
-0.20
-0.12
-0.06
-0.12
-0.34
-0.66
-0.91
-0.97
-0.83
-0.57
-0.37
-0.33
-0.45
-0.63
-0.73
-0.68
-0.48
-0.22
0.01
0.12
0.14
0.13
0.17
0.30
0.51
0.72
0.86
0.88
0.80
0.69
0.61
0.58
0.55
0.45
0.22
-0.09
-0.38
-0.52
-0.45
-0.20
0.12
0.39
0.52
0.51
0.44
0.39
0.39
0.41
0.37
0.21
-0.06
-0.37
-0.58
-0.61
-0.42
-0.11
0.20
0.38
0.41
0.31
0.18
0.10
0.09
0.13
0.16
0.15
0.10
0.03
-0.00
0.03
0.12
0.25
0.38
0.45
0.41
0.26
0.01
-0.26
-0.48
-0.58
-0.56
-0.46
-0.35
-0.25
-0.17
-0.08
0.03
0.15
0.20
0.14
-0.01
-0.18
-0.25
-0.16
0.08
0.36
0.55
0.58
0.45
0.23
0.06
-0.00
0.07
0.19
0.27
0.22
0.07
-0.10
-0.18
-0.09
0.14
0.38
0.47
0.31
-0.08
-0.58
-1.00
-1.20
-1.14
-0.89
-0.56
-0.27
-0.08
0.02
0.05
0.04
-0.02
-0.11
-0.23
-0.31
-0.28
-0.13
0.11
0.33
0.45
0.42
0.30
0.18
0.18
0.35
0.65
0.99
1.26
1.39
1.37
1.21
0.95
0.64
0.34
0.13
0.07
0.17
0.39
0.66
0.89
1.00
0.98
0.84
0.60
0.31
0.05
-0.15
-0.28
-0.35
-0.42
-0.54
-0.73
-0.94
-1.09
-1.09
-0.93
-0.65
-0.35
-0.10
0.05
0.10
0.08
0.02
-0.09
-0.24
-0.42
-0.58
-0.68
-0.70
-0.61
-0.44
-0.23
-0.03
0.15
0.29
0.41
0.50
0.53
0.46
0.27
-0.03
-0.35
-0.57
-0.59
-0.40
-0.07
0.27
0.53
0.66
0.73
0.78
0.85
0.87
0.78
0.53
0.16
-0.19
-0.40
-0.42
-0.31
-0.21
-0.21
-0.35
-0.54
-0.64
-0.55
-0.26
0.11
0.43
0.60
0.63
0.58
0.53
0.54
0.56
0.51
0.34
0.06
-0.23
-0.42
-0.42
-0.28
-0.10
-0.02
-0.09
-0.26
-0.42
-0.46
-0.33
-0.10
0.13
0.24
0.18
-0.03
-0.33
-0.65
-0.92
-1.10
-1.17
-1.10
-0.90
-0.64
-0.36
-0.15
-0.05
-0.03
-0.05
-0.10
-0.15
-0.22
-0.35
-0.52
-0.73
-0.93
-1.07
-1.14
-1.14
-1.12
-1.12
-1.20
-1.36
-1.58
-1.79
-1.92
-1.94
-1.87
-1.82
-1.91
-2.23
-2.78
-3.49
-4.20
-4.79
-5.21
-5.50
-5.74
-6.08
-6.62
-7.39
-8.36
-9.43
-10.49
-11.46
-12.29
-13.02
-13.74
-14.59
-15.74
-17.27
-19.16
-21.23
-23.25
-24.98
-26.33
-27.38
-28.35
-29.57
-31.30
-33.72
-36.80
-40.23
-43.35
-45.23
-44.81
-41.32
-34.59
-25.31
-14.79
-4.55
4.25
11.20
16.53
20.78
24.38
27.46
29.94
31.84
33.42
35.17
37.47
40.29
43.18
45.48
46.67
46.68
45.84
44.65
43.44
42.26
40.93
39.31
37.54
35.97
35.11
35.22
36.12
37.27
37.86
37.28
35.43
32.88
30.60
29.70
30.74
33.36
36.18
37.17
34.43
26.78
14.15
-2.64
-22.11
-42.64
-62.62
-80.61
-95.51
-106.94
-115.41
-122.10
-128.05
-133.17
-135.69
-132.62
-121.19
-100.51
-72.51
-41.48
-12.44
10.82
26.88
36.59
42.02
45.26
47.49
49.14
50.33
51.37
52.84
55.24
58.60
62.39
65.75
67.87
68.56
68.27
67.87
68.17
69.51
71.61
73.87
75.66
76.80
77.61
78.73
80.74
83.83
87.66
91.60
95.03
97.74
99.99
102.41
105.64
110.06
115.52
121.13
125.05
124.50
116.16
97.19
66.62
26.43
-18.41
-61.19
-95.70
-118.26
-128.70
-129.79
-125.52
-119.27
-112.83
-106.50
-100.06
-93.54
-87.53
-82.80
-79.64
-77.56
-75.46
-72.22
-67.32
-61.04
-54.41
-48.62
-44.49
-42.08
-40.74
-39.43
-37.25
-33.80
-29.36
-24.67
-20.57
-17.62
-15.91
-15.04
-14.40
-13.45
-11.94
-9.97
-7.88
-6.08
-4.83
-4.18
-3.96
-3.90
-3.73
-3.33
-2.73
-2.11
-1.67
-1.56
-1.78
-2.23
-2.75
-3.22
-3.59
-3.90
-4.17
-4.41
-4.55
-4.53
-4.28
-3.78
-3.01
-1.92
-0.48
1.25
3.08
4.77
6.10
7.00
7.60
8.13
8.66
9.08
9.07
8.34
6.77
4.54
1.97
-0.62
-3.17
-5.79
-8.68
-11.86
-15.12
-18.02
-20.11
-21.15
-21.31
-21.12
-21.34
-22.60
-25.13
-28.64
-32.34
-35.38
-37.21
-37.85
-37.90
-38.11
-38.95
-40.24
-41.29
-41.32
-40.07
-38.05
-36.24
-35.34
-35.10
-34.25
-31.10
-24.55
-14.74
-2.86
9.62
22.00
34.68
48.66
64.41
81.17
96.99
109.72
118.27
123.39
127.02
130.79
134.38
135.12
129.17
113.76
89.07
58.83
28.83
4.55
-11.12
-18.65
-20.86
-21.05
-21.27
-21.77
-21.65
-20.07
-17.17
-14.05
-12.13
-12.27
-14.38
-17.51
-20.36
-21.91
-21.90
-20.80
-19.51
-18.87
-19.24
-20.38
-21.62
-22.24
-21.86
-20.62
-19.04
-17.70
-16.97
-16.78
-16.80
-16.61
-15.97
-14.90
-13.68
-12.61
-11.90
-11.55
-11.40
-11.25
-10.96
-10.52
-10.09
-9.84
-9.91
-10.30
-10.91
-11.52
-11.93
-12.02
-11.84
-11.61
-11.67
-12.29
-13.61
-15.48
-17.50
-19.22
-20.28
-20.60
-20.43
-20.23
-20.51
-21.57
-23.44
-25.79
-28.00
-29.21
-28.53
-25.27
-19.32
-11.37
-2.82
4.67
9.96
13.06
15.29
18.79
25.59
36.65
51.36
67.69
82.81
93.90
98.91
96.94
88.39
74.74
58.14
40.94
25.27
12.71
4.04
-0.73
-2.42
-2.37
-2.15
-3.12
-5.96
-10.52
-15.85
-20.65
-23.80
-24.81
-23.88
-21.68
-19.06
-16.67
-14.93
-13.96
-13.69
-13.87
-14.21
-14.42
-14.34
-13.95
-13.32
-12.61
-11.96
-11.42
-10.98
-10.59
-10.17
-9.66
-9.00
-8.15
-7.15
-6.07
-5.02
-4.10
-3.38
-2.80
-2.29
-1.78
-1.26
-0.79
-0.43
-0.21
-0.07
0.06
0.21
0.36
0.45
0.41
0.25
0.04
-0.10
-0.14
-0.12
-0.12
-0.23
-0.45
-0.66
-0.74
-0.58
-0.20
0.27
0.66
0.82
0.76
0.56
0.36
0.26
0.27
0.30
0.27
0.12
-0.13
-0.39
-0.62
-0.78
-0.91
-1.06
-1.25
-1.42
-1.46
-1.30
-0.88
-0.28
0.38
0.94
1.31
1.44
1.38
1.22
1.03
0.87
0.75
0.64
0.52
0.34
0.13
-0.07
-0.21
-0.21
-0.09
0.11
0.28
0.33
0.23
0.03
-0.18
-0.33
-0.39
-0.39
-0.36
-0.32
-0.26
-0.16
-0.05
0.04
0.06
-0.00
-0.10
-0.17
-0.15
-0.06
0.07
0.18
0.23
0.22
0.19
0.17
0.18
0.17
0.13
0.05
-0.03
-0.05
0.01
0.15
0.29
0.36
0.31
0.17
-0.00
-0.13
-0.17
-0.12
-0.02
0.11
0.26
0.39
0.47
0.49
0.41
0.27
0.14
0.09
0.16
0.35
0.55
0.70
0.72
0.62
0.43
0.23
0.02
-0.17
-0.33
-0.45
-0.47
-0.36
-0.15
0.11
0.28
0.28
0.08
-0.25
-0.62
-0.93
-1.12
-1.18
-1.11
-0.91
-0.60
-0.18
0.26
0.64
0.87
0.92
0.78
0.54
0.25
-0.01
-0.20
-0.30
-0.32
-0.26
-0.17
-0.10
-0.07
-0.09
-0.13
-0.16
-0.17
-0.20
-0.26
-0.34
-0.42
-0.44
-0.38
-0.23
-0.05
0.11
0.20
0.20
0.12
-0.01
-0.13
-0.19
-0.16
-0.05
0.08
0.15
0.11
-0.03
-0.18
-0.24
-0.16
0.00
0.16
0.22
0.16
0.02
-0.12
-0.17
-0.14
-0.09
-0.09
-0.17
-0.34
-0.55
-0.71
-0.77
-0.70
-0.53
-0.35
-0.23
-0.23
-0.34
-0.49
-0.58
-0.54
-0.35
-0.05
0.30
0.61
0.82
0.90
0.82
0.65
0.45
0.32
0.31
0.42
0.59
0.70
0.66
0.44
0.10
-0.26
-0.51
-0.56
-0.42
-0.16
0.08
0.20
0.18
0.08
0.04
0.14
0.40
0.71
0.89
0.84
0.55
0.15
-0.19
-0.33
-0.24
-0.02
0.20
0.32
0.30
0.17
0.02
-0.10
-0.17
-0.19
-0.16
-0.11
-0.00
0.16
0.34
0.47
0.48
0.34
0.06
-0.23
-0.39
-0.32
0.01
0.47
0.88
1.05
0.89
0.49
0.02
-0.29
-0.31
-0.07
0.30
0.59
0.62
0.37
-0.08
-0.56
-0.89
-0.99
-0.87
-0.61
-0.34
-0.14
-0.02
0.03
0.06
0.08
0.06
-0.02
-0.15
-0.29
-0.34
-0.26
-0.04
0.22
0.42
0.46
0.31
0.05
-0.21
-0.37
-0.38
-0.29
-0.22
-0.26
-0.42
-0.62
-0.75
-0.72
-0.55
-0.30
-0.10
0.00
0.03
0.04
0.08
0.13
0.12
0.02
-0.14
-0.26
-0.25
-0.07
0.23
0.52
0.69
0.70
0.57
0.40
0.28
0.28
0.39
0.56
0.68
0.67
0.49
0.20
-0.09
-0.25
-0.22
-0.01
0.26
0.49
0.59
0.59
0.52
0.44
0.37
0.27
0.11
-0.11
-0.31
-0.41
-0.32
-0.09
0.18
0.35
0.30
0.02
-0.38
-0.76
-0.99
-1.02
-0.86
-0.59
-0.32
-0.12
-0.04
-0.08
-0.23
-0.44
-0.65
-0.78
-0.79
-0.66
-0.43
-0.18
-0.00
0.05
-0.02
-0.17
-0.31
-0.35
-0.25
-0.02
0.28
0.54
0.67
0.65
0.49
0.25
0.03
-0.10
-0.12
-0.03
0.11
0.26
0.40
0.51
0.57
0.57
0.49
0.31
0.05
-0.24
-0.46
-0.55
-0.49
-0.30
-0.06
0.13
0.22
0.22
0.17
0.15
0.18
0.23
0.25
0.16
-0.03
-0.28
-0.48
-0.53
-0.39
-0.12
0.17
0.32
0.24
-0.09
-0.58
-1.07
-1.43
-1.53
-1.34
-0.92
-0.36
0.25
0.82
1.27
1.52
1.50
1.22
0.73
0.16
-0.31
-0.54
-0.49
-0.20
0.19
0.52
0.68
0.62
0.40
0.13
-0.06
-0.09
0.07
0.37
0.75
1.11
1.38
1.49
1.42
1.16
0.76
0.32
-0.08
-0.37
-0.53
-0.58
-0.55
-0.44
-0.29
-0.09
0.09
0.20
0.18
0.01
-0.24
-0.50
-0.69
-0.79
-0.78
-0.68
-0.49
-0.21
0.10
0.35
0.44
0.34
0.07
-0.24
-0.47
-0.52
-0.42
-0.24
-0.08
0.01
0.05
0.08
0.16
0.27
0.39
0.48
0.51
0.47
0.37
0.22
0.04
-0.13
-0.26
-0.33
-0.34
-0.29
-0.21
-0.12
-0.07
-0.10
-0.23
-0.49
-0.84
-1.20
-1.48
-1.62
-1.58
-1.43
-1.28
-1.24
-1.40
-1.74
-2.17
-2.56
-2.78
-2.79
-2.65
-2.47
-2.41
-2.54
-2.85
-3.22
-3.53
-3.66
-3.65
-3.59
-3.57
-3.66
-3.85
-4.09
-4.41
-4.85
-5.44
-6.07
-6.37
-5.85
-4.12
-1.12
2.72
6.62
9.75
11.58
11.99
11.22
9.73
7.89
6.01
4.27
2.88
2.00
1.72
1.96
2.50
3.09
3.52
3.76
3.87
3.97
4.13
4.37
4.67
5.00
5.28
5.45
5.40
5.03
4.32
3.33
2.24
1.22
0.41
-0.11
-0.37
-0.44
-0.40
-0.32
-0.25
-0.18
-0.06
0.16
0.49
0.94
1.44
1.94
2.36
2.66
2.79
2.74
2.54
2.26
2.01
1.92
2.06
2.45
3.03
3.66
4.20
4.54
4.64
4.47
4.02
3.28
2.24
0.91
-0.68
-2.44
-4.24
-5.95
-7.42
-8.56
-9.37
-9.99
-10.60
-11.40
-12.45
-13.63
-14.70
-15.40
-15.58
-15.32
-14.87
-14.51
-14.44
-14.65
-14.94
-15.01
-14.56
-13.36
-11.31
-8.38
-4.68
-0.48
3.82
7.76
11.00
13.48
15.51
17.53
19.93
22.72
25.43
27.30
27.60
26.00
22.71
18.38
13.82
9.65
6.13
3.27
0.93
-0.96
-2.35
-3.10
-3.13
-2.51
-1.41
-0.11
1.16
2.22
2.95
3.27
3.06
2.26
0.90
-0.86
-2.72
-4.37
-5.57
-6.24
-6.45
-6.36
-6.10
-5.77
-5.43
-5.14
-4.95
-4.89
-4.96
-5.07
-5.11
-4.96
-4.59
-4.06
-3.46
-2.93
-2.56
-2.36
-2.29
-2.27
-2.17
-1.95
-1.58
-1.11
-0.62
-0.22
-0.01
-0.02
-0.21
-0.49
-0.75
-0.90
-0.90
-0.77
-0.59
-0.46
-0.42
-0.47
-0.55
-0.57
-0.50
-0.40
-0.34
-0.37
-0.49
-0.60
-0.59
-0.39
-0.02
0.45
0.87
1.16
1.31
1.33
1.24
1.05
0.75
0.38
0.03
-0.17
-0.13
0.14
0.54
0.94
1.18
1.22
1.08
0.85
0.65
0.52
0.49
0.49
0.46
0.35
0.16
-0.07
-0.27
-0.39
-0.43
-0.44
-0.47
-0.54
-0.60
-0.59
-0.43
-0.15
0.20
0.51
0.69
0.69
0.51
0.20
-0.16
-0.52
-0.83
-1.09
-1.28
-1.38
-1.38
-1.25
-0.97
-0.55
-0.03
0.52
1.00
1.32
1.42
1.29
0.97
0.57
0.17
-0.12
-0.27
-0.29
-0.23
-0.15
-0.09
-0.05
-0.01
0.02
0.03
0.00
-0.08
-0.20
-0.32
-0.37
-0.31
-0.12
0.15
0.41
0.60
0.65
0.59
0.45
0.31
0.20
0.14
0.13
0.16
0.19
0.22
0.22
0.18
0.10
-0.01
-0.11
-0.18
-0.23
-0.25
-0.27
-0.27
-0.28
-0.30
-0.36
-0.47
-0.62
-0.74
-0.75
-0.57
-0.22
0.20
0.58
0.79
0.80
0.65
0.41
0.17
-0.01
-0.11
-0.11
-0.05
0.02
0.06
0.01
-0.15
-0.38
-0.62
-0.75
-0.71
-0.47
-0.11
0.24
0.46
0.48
0.35
0.15
0.02
-0.00
0.06
0.12
0.06
-0.11
-0.32
-0.44
-0.39
-0.18
0.06
0.19
0.10
-0.17
-0.52
-0.80
-0.88
-0.73
-0.41
-0.01
0.36
0.62
0.72
0.63
0.40
0.11
-0.15
-0.28
-0.25
-0.08
0.15
0.35
0.47
0.49
0.42
0.31
0.20
0.12
0.09
0.13
0.21
0.31
0.39
0.42
0.40
0.37
0.40
0.51
0.69
0.84
0.86
0.71
0.40
0.03
-0.27
-0.43
-0.43
-0.30
-0.13
0.01
0.07
0.07
0.07
0.12
0.24
0.38
0.46
0.40
0.20
-0.08
-0.35
-0.51
-0.51
-0.39
-0.23
-0.11
-0.09
-0.20
-0.40
-0.64
-0.85
-0.94
-0.87
-0.68
-0.44
-0.23
-0.07
0.05
0.21
0.41
0.59
0.65
0.50
0.19
-0.16
-0.34
-0.22
0.19
0.73
1.17
1.36
1.26
0.98
0.65
0.40
0.24
0.08
-0.16
-0.53
-0.94
-1.23
-1.27
-0.98
-0.46
0.11
0.54
0.73
0.71
0.57
0.41
0.27
0.13
-0.02
-0.17
-0.30
-0.35
-0.33
-0.28
-0.23
-0.21
-0.20
-0.13
0.01
0.21
0.39
0.48
0.43
0.25
-0.01
-0.29
-0.50
-0.60
-0.57
-0.47
-0.36
-0.31
-0.37
-0.51
-0.65
-0.69
-0.60
-0.40
-0.20
-0.07
-0.05
-0.11
-0.18
-0.20
-0.16
-0.12
-0.09
-0.08
-0.04
0.11
0.40
0.76
1.10
1.31
1.30
1.11
0.81
0.50
0.27
0.17
0.19
0.29
0.36
0.33
0.20
-0.01
-0.20
-0.28
-0.21
-0.04
0.10
0.12
-0.03
-0.30
-0.56
-0.73
-0.77
-0.73
-0.64
-0.53
-0.41
-0.25
-0.07
0.07
0.11
0.00
-0.22
-0.49
-0.74
-0.90
-0.95
-0.89
-0.73
-0.46
-0.13
0.22
0.49
0.60
0.51
0.26
-0.03
-0.26
-0.34
-0.29
-0.17
-0.06
0.01
0.08
0.22
0.47
0.77
1.04
1.17
1.08
0.82
0.48
0.18
-0.00
-0.05
0.01
0.10
0.19
0.26
0.34
0.43
0.47
0.44
0.27
-0.01
-0.32
-0.53
-0.55
-0.36
-0.05
0.23
0.36
0.30
0.11
-0.11
-0.29
-0.40
-0.43
-0.40
-0.34
-0.22
-0.07
0.09
0.21
0.22
0.15
0.03
-0.09
-0.17
-0.20
-0.22
-0.25
-0.26
-0.24
-0.14
0.00
0.12
0.15
0.09
-0.02
-0.08
-0.04
0.10
0.29
0.45
0.56
0.61
0.61
0.56
0.44
0.23
-0.03
-0.27
-0.40
-0.38
-0.22
-0.01
0.20
0.38
0.53
0.66
0.74
0.71
0.55
0.28
-0.02
-0.22
-0.23
-0.08
0.14
0.28
0.24
0.04
-0.23
-0.45
-0.52
-0.44
-0.29
-0.14
-0.03
0.03
0.08
0.14
0.20
0.17
0.02
-0.28
-0.63
-0.92
-1.03
-0.88
-0.51
-0.06
0.29
0.40
0.21
-0.22
-0.72
-1.10
-1.21
-1.04
-0.70
-0.33
-0.08
0.03
0.04
0.06
0.14
0.27
0.40
0.45
0.40
0.27
0.12
0.03
0.05
0.18
0.37
0.56
0.67
0.67
0.55
0.37
0.20
0.06
-0.05
-0.15
-0.27
-0.37
-0.40
-0.30
-0.08
0.18
0.37
0.40
0.27
0.06
-0.14
-0.25
-0.26
-0.18
-0.07
0.05
0.18
0.27
0.30
0.23
0.02
-0.29
-0.62
-0.88
-0.99
-0.94
-0.75
-0.49
-0.24
-0.03
0.09
0.15
0.20
0.28
0.43
0.63
0.86
1.05
1.16
1.15
1.00
0.75
0.45
0.15
-0.11
-0.29
-0.38
-0.40
-0.34
-0.25
-0.16
-0.12
-0.16
-0.30
-0.46
-0.57
-0.54
-0.35
-0.07
0.17
0.25
0.14
-0.08
-0.29
-0.37
-0.28
-0.08
0.11
0.21
0.18
0.08
-0.02
-0.09
-0.10
-0.07
-0.02
0.05
0.14
0.22
0.27
0.27
0.21
0.12
0.06
0.07
0.15
0.31
0.50
0.64
0.69
0.58
0.30
-0.13
-0.59
-0.96
-1.13
-1.03
-0.72
-0.29
0.11
0.40
0.52
0.49
0.36
0.20
0.05
-0.06
-0.09
-0.07
-0.05
-0.07
-0.17
-0.35
-0.55
-0.68
-0.69
-0.57
-0.38
-0.20
-0.08
-0.02
0.02
0.06
0.12
0.15
0.13
0.08
0.04
0.08
0.25
0.53
0.86
1.14
1.31
1.32
1.21
1.04
0.87
0.74
0.69
0.69
0.71
0.74
0.73
0.67
0.53
0.30
0.02
-0.25
-0.42
-0.44
-0.32
-0.15
-0.05
-0.10
-0.30
-0.59
-0.82
-0.92
-0.88
-0.78
-0.70
-0.71
-0.77
-0.83
-0.79
-0.63
-0.39
-0.15
0.01
0.07
0.10
0.15
0.27
0.44
0.58
0.60
0.46
0.21
-0.08
-0.29
-0.38
-0.33
-0.19
-0.02
0.12
0.22
0.25
0.22
0.12
-0.00
-0.11
-0.15
-0.08
0.05
0.18
0.21
0.10
-0.12
-0.36
-0.48
-0.45
-0.26
-0.03
0.14
0.15
-0.01
-0.27
-0.50
-0.61
-0.55
-0.38
-0.20
-0.11
-0.11
-0.16
-0.18
-0.15
-0.10
-0.11
-0.18
-0.28
-0.29
-0.14
0.20
0.64
1.01
1.14
0.96
0.50
-0.09
-0.62
-0.89
-0.84
-0.49
0.02
0.49
0.79
0.87
0.80
0.69
0.60
0.55
0.49
0.38
0.22
0.10
0.08
0.18
0.31
0.35
0.22
-0.09
-0.49
-0.83
-1.02
-1.02
-0.94
-0.86
-0.87
-0.98
-1.12
-1.23
-1.27
-1.23
-1.13
-0.98
-0.75
-0.45
-0.07
0.32
0.65
0.84
0.87
0.75
0.52
0.23
-0.06
-0.33
-0.55
-0.67
-0.67
-0.54
-0.30
-0.01
0.28
0.52
0.67
0.75
0.77
0.77
0.77
0.76
0.75
0.74
0.74
0.76
0.78
0.75
0.62
0.40
0.10
-0.14
-0.24
-0.17
0.02
0.22
0.32
0.31
0.27
0.29
0.44
0.67
0.83
0.81
0.59
0.25
-0.04
-0.16
-0.08
0.13
0.33
0.40
0.27
-0.02
-0.37
-0.70
-0.94
-1.08
-1.12
-1.10
-1.04
-0.93
-0.76
-0.53
-0.25
0.01
0.21
0.33
0.37
0.42
0.48
0.57
0.64
0.64
0.55
0.42
0.27
0.14
0.03
-0.10
-0.25
-0.38
-0.46
-0.44
-0.30
-0.08
0.15
0.35
0.49
0.55
0.50
0.34
0.08
-0.21
-0.44
-0.50
-0.36
-0.06
0.27
0.49
0.49
0.26
-0.11
-0.46
-0.65
-0.63
-0.44
-0.20
-0.04
-0.02
-0.14
-0.31
-0.43
-0.44
-0.34
-0.20
-0.05
0.07
0.15
0.20
0.23
0.21
0.16
0.08
0.01
-0.00
0.06
0.15
0.24
0.30
0.33
0.35
0.40
0.47
0.49
0.42
0.21
-0.06
-0.30
-0.36
-0.21
0.12
0.48
0.69
0.65
0.36
-0.04
-0.39
-0.57
-0.54
-0.35
-0.10
0.13
0.29
0.39
0.42
0.38
0.26
0.06
-0.21
-0.47
-0.64
-0.66
-0.55
-0.36
-0.17
-0.07
-0.09
-0.22
-0.43
-0.64
-0.82
-0.93
-0.97
-0.90
-0.72
-0.44
-0.14
0.11
0.23
0.18
0.01
-0.19
-0.33
-0.34
-0.21
0.01
0.25
0.45
0.54
0.48
0.26
-0.06
-0.39
-0.60
-0.62
-0.43
-0.11
0.21
0.44
0.57
0.62
0.66
0.68
0.66
0.55
0.32
0.02
-0.24
-0.36
-0.26
0.03
0.41
0.72
0.85
0.75
0.49
0.17
-0.09
-0.21
-0.21
-0.12
-0.03
-0.01
-0.10
-0.28
-0.50
-0.67
-0.71
-0.57
-0.29
0.05
0.34
0.50
0.51
0.45
0.37
0.33
0.32
0.30
0.24
0.13
0.01
-0.05
-0.01
0.13
0.33
0.54
0.73
0.86
0.91
0.87
0.71
0.43
0.04
-0.37
-0.67
-0.78
-0.63
-0.28
0.13
0.42
0.47
0.30
-0.01
-0.29
-0.45
-0.46
-0.36
-0.23
-0.11
-0.03
0.04
0.12
0.20
0.26
0.29
0.27
0.24
0.23
0.25
0.28
0.29
0.23
0.08
-0.18
-0.45
-0.68
-0.78
-0.74
-0.62
-0.51
-0.46
-0.50
-0.59
-0.67
-0.67
-0.59
-0.43
-0.24
-0.06
0.08
0.16
0.19
0.18
0.16
0.12
0.06
-0.04
-0.16
-0.23
-0.20
-0.05
0.20
0.46
0.61
0.60
0.45
0.26
0.17
0.24
0.48
0.77
0.99
1.03
0.85
0.49
0.06
-0.35
-0.64
-0.77
-0.72
-0.56
-0.32
-0.06
0.14
0.26
0.26
0.17
0.02
-0.15
-0.33
-0.49
-0.63
-0.73
-0.78
-0.74
-0.65
-0.54
-0.46
-0.42
-0.39
-0.36
-0.29
-0.19
-0.11
-0.08
-0.12
-0.20
-0.30
-0.36
-0.37
-0.28
-0.10
0.18
0.55
0.94
1.29
1.51
1.57
1.48
1.29
1.03
0.72
0.40
0.06
-0.21
-0.35
-0.32
-0.13
0.12
0.35
0.44
0.36
0.13
-0.15
-0.40
-0.55
-0.59
-0.50
-0.35
-0.17
-0.04
0.00
-0.08
-0.25
-0.41
-0.50
-0.45
-0.28
-0.08
0.05
0.04
-0.12
-0.36
-0.57
-0.66
-0.60
-0.41
-0.15
0.10
0.29
0.38
0.33
0.16
-0.10
-0.40
-0.66
-0.80
-0.72
-0.41
0.10
0.67
1.13
1.34
1.23
0.89
0.45
0.10
-0.06
-0.04
0.07
0.15
0.11
-0.04
-0.21
-0.32
-0.31
-0.21
-0.11
-0.08
-0.17
-0.34
-0.47
-0.48
-0.31
-0.01
0.31
0.55
0.63
0.57
0.41
0.24
0.12
0.06
0.07
0.14
0.25
0.35
0.41
0.38
0.28
0.14
0.03
-0.02
-0.01
0.02
0.02
-0.05
-0.16
-0.24
-0.24
-0.14
0.01
0.12
0.11
-0.02
-0.24
-0.43
-0.48
-0.35
-0.07
0.26
0.52
0.58
0.44
0.15
-0.13
-0.27
-0.18
0.10
0.44
0.69
0.73
0.57
0.30
0.03
-0.13
-0.17
-0.10
0.01
0.12
0.18
0.16
0.04
-0.19
-0.49
-0.77
-0.91
-0.86
-0.63
-0.33
-0.12
-0.12
-0.36
-0.78
-1.23
-1.56
-1.66
-1.48
-1.09
-0.58
-0.07
0.33
0.57
0.64
0.57
0.42
0.26
0.16
0.18
0.32
0.55
0.79
0.97
1.05
1.03
0.98
0.95
0.98
1.06
1.18
1.28
1.35
1.35
1.26
1.07
0.78
0.42
0.05
-0.29
-0.53
-0.66
-0.66
-0.55
-0.39
-0.23
-0.14
-0.16
-0.28
-0.44
-0.57
-0.62
-0.58
-0.49
-0.40
-0.33
-0.30
-0.28
-0.25
-0.21
-0.16
-0.11
-0.06
-0.03
-0.02
-0.03
-0.05
-0.06
-0.03
0.05
0.15
0.23
0.25
0.23
0.18
0.14
0.12
0.10
0.03
-0.14
-0.39
-0.66
-0.84
-0.88
-0.74
-0.48
-0.17
0.10
0.29
0.37
0.34
0.21
0.01
-0.22
-0.39
-0.44
-0.32
-0.10
0.09
0.13
-0.03
-0.36
-0.73
-0.98
-1.00
-0.76
-0.35
0.10
0.44
0.55
0.43
0.15
-0.17
-0.40
-0.46
-0.36
-0.17
-0.00
0.09
0.08
0.02
-0.04
-0.06
-0.04
-0.01
0.02
0.03
0.02
0.04
0.10
0.20
0.31
0.38
0.37
0.26
0.09
-0.10
-0.25
-0.33
-0.36
-0.38
-0.40
-0.44
-0.45
-0.39
-0.23
0.02
0.28
0.47
0.55
0.52
0.45
0.42
0.49
0.65
0.86
1.04
1.11
1.04
0.83
0.48
0.06
-0.39
-0.82
-1.14
-1.26
-1.13
-0.78
-0.28
0.26
0.71
1.01
1.13
1.09
0.93
0.68
0.37
0.03
-0.28
-0.50
-0.56
-0.46
-0.26
-0.05
0.07
0.05
-0.06
-0.20
-0.27
-0.22
-0.05
0.14
0.26
0.26
0.15
-0.01
-0.11
-0.10
0.00
0.10
0.08
-0.09
-0.37
-0.60
-0.65
-0.43
-0.01
0.44
0.75
0.80
0.59
0.21
-0.19
-0.48
-0.59
-0.48
-0.19
0.19
0.51
0.65
0.56
0.29
-0.05
-0.31
-0.40
-0.32
-0.11
0.15
0.41
0.62
0.72
0.67
0.44
0.09
-0.30
-0.60
-0.74
-0.73
-0.61
-0.49
-0.40
-0.34
-0.25
-0.07
0.16
0.41
0.58
0.62
0.53
0.38
0.22
0.10
0.02
-0.07
-0.18
-0.32
-0.43
-0.47
-0.41
-0.27
-0.09
0.05
0.12
0.12
0.06
-0.04
-0.14
-0.19
-0.15
-0.02
0.17
0.32
0.34
0.16
-0.17
-0.48
-0.62
-0.48
-0.10
0.34
0.66
0.72
0.57
0.33
0.17
0.13
0.16
0.13
-0.01
-0.24
-0.46
-0.53
-0.39
-0.12
0.16
0.31
0.24
-0.02
-0.39
-0.76
-1.01
-1.05
-0.86
-0.50
-0.09
0.25
0.42
0.42
0.30
0.14
-0.01
-0.13
-0.22
-0.28
-0.29
-0.24
-0.14
-0.03
0.05
0.10
0.13
0.18
0.26
0.33
0.32
0.20
-0.03
-0.28
-0.45
-0.47
-0.32
-0.06
0.23
0.46
0.59
0.62
0.55
0.40
0.20
0.02
-0.09
-0.09
0.01
0.15
0.27
0.31
0.28
0.22
0.16
0.12
0.09
0.03
-0.07
-0.19
-0.32
-0.40
-0.42
-0.39
-0.32
-0.23
-0.13
-0.04
0.02
0.04
-0.01
-0.13
-0.27
-0.39
-0.44
-0.39
-0.25
-0.04
0.17
0.33
0.44
0.49
0.51
0.54
0.58
0.62
0.61
0.56
0.49
0.46
0.53
0.70
0.91
1.05
1.04
0.85
0.57
0.31
0.15
0.09
0.07
0.01
-0.12
-0.31
-0.49
-0.60
-0.59
-0.48
-0.29
-0.06
0.15
0.33
0.40
0.35
0.18
-0.07
-0.32
-0.50
-0.55
-0.47
-0.31
-0.14
-0.05
-0.07
-0.21
-0.39
-0.52
-0.54
-0.44
-0.29
-0.17
-0.15
-0.22
-0.31
-0.35
-0.31
-0.24
-0.22
-0.30
-0.45
-0.58
-0.59
-0.40
-0.04
0.40
0.78
1.02
1.09
1.03
0.89
0.76
0.67
0.61
0.57
0.53
0.49
0.47
0.49
0.53
0.56
0.53
0.40
0.16
-0.14
-0.44
-0.69
-0.85
-0.91
-0.87
-0.76
-0.63
-0.51
-0.41
-0.35
-0.31
-0.29
-0.30
-0.33
-0.38
-0.45
-0.52
-0.57
-0.59
-0.58
-0.54
-0.48
-0.39
-0.28
-0.16
-0.07
-0.02
-0.03
-0.10
-0.18
-0.22
-0.19
-0.11
-0.01
0.06
0.10
0.11
0.12
0.17
0.22
0.24
0.18
0.03
-0.15
-0.28
-0.29
-0.17
0.04
0.26
0.44
0.54
0.55
0.49
0.38
0.26
0.18
0.16
0.19
0.25
0.29
0.24
0.11
-0.07
-0.25
-0.34
-0.31
-0.20
-0.08
-0.02
-0.09
-0.28
-0.52
-0.70
-0.73
-0.58
-0.29
0.06
0.38
0.56
0.54
0.32
-0.09
-0.56
-0.94
-1.10
-0.97
-0.60
-0.13
0.29
0.56
0.67
0.68
0.63
0.56
0.47
0.33
0.17
0.02
-0.07
-0.10
-0.06
0.03
0.14
0.24
0.31
0.31
0.27
0.20
0.17
0.21
0.30
0.38
0.41
0.36
0.28
0.26
0.37
0.64
0.97
1.24
1.31
1.12
0.71
0.21
-0.22
-0.48
-0.56
-0.53
-0.51
-0.55
-0.61
-0.61
-0.45
-0.13
0.27
0.60
0.74
0.65
0.43
0.21
0.14
0.25
0.47
0.66
0.69
0.48
0.06
-0.45
-0.94
-1.31
-1.52
-1.58
-1.50
-1.29
-0.98
-0.61
-0.21
0.14
0.42
0.60
0.70
0.71
0.63
0.48
0.27
0.08
-0.02
0.02
0.17
0.35
0.48
0.52
0.49
0.46
0.45
0.44
0.35
0.13
-0.21
-0.57
-0.82
-0.88
-0.77
-0.59
-0.45
-0.41
-0.43
-0.43
-0.36
-0.22
-0.07
0.02
0.06
0.10
0.21
0.42
0.66
0.85
0.90
0.77
0.52
0.21
-0.07
-0.32
-0.53
-0.70
-0.80
-0.79
-0.63
-0.39
-0.15
-0.04
-0.12
-0.34
-0.57
-0.65
-0.46
-0.01
0.61
1.22
1.65
1.81
1.67
1.28
0.77
0.25
-0.14
-0.31
-0.26
-0.09
0.07
0.08
-0.12
-0.50
-0.93
-1.25
-1.35
-1.18
-0.80
-0.35
0.03
0.24
0.25
0.09
-0.14
-0.36
-0.51
-0.55
-0.49
-0.34
-0.16
-0.00
0.06
0.01
-0.14
-0.32
-0.42
-0.40
-0.24
-0.05
0.09
0.10
-0.00
-0.14
-0.22
-0.18
-0.04
0.13
0.24
0.25
0.18
0.12
0.12
0.22
0.35
0.43
0.40
0.27
0.07
-0.10
-0.17
-0.12
0.01
0.16
0.27
0.29
0.22
0.12
0.05
0.05
0.14
0.28
0.45
0.58
0.64
0.63
0.56
0.44
0.30
0.13
-0.08
-0.31
-0.54
-0.71
-0.76
-0.65
-0.40
-0.10
0.16
0.28
0.22
0.05
-0.14
-0.27
-0.30
-0.26
-0.22
-0.23
-0.31
-0.42
-0.50
-0.50
-0.42
-0.30
-0.17
-0.08
-0.06
-0.12
-0.22
-0.32
-0.36
-0.30
-0.15
0.07
0.31
0.53
0.69
0.78
0.84
0.88
0.96
1.08
1.21
1.29
1.28
1.16
0.96
0.74
0.53
0.40
0.31
0.22
0.09
-0.10
-0.31
-0.48
-0.56
-0.53
-0.43
-0.28
-0.14
-0.04
0.01
-0.00
-0.08
-0.23
-0.44
-0.65
-0.79
-0.83
-0.74
-0.57
-0.39
-0.26
-0.17
-0.07
0.08
0.25
0.38
0.38
0.19
-0.11
-0.43
-0.63
-0.67
-0.58
-0.46
-0.36
-0.29
-0.19
-0.03
0.17
0.37
0.49
0.52
0.48
0.42
0.41
0.43
0.45
0.42
0.31
0.14
-0.07
-0.26
-0.38
-0.36
-0.18
0.12
0.45
0.70
0.77
0.66
0.43
0.22
0.12
0.17
0.34
0.54
0.69
0.72
0.63
0.45
0.23
0.02
-0.10
-0.13
-0.07
0.02
0.05
-0.04
-0.25
-0.52
-0.75
-0.86
-0.85
-0.76
-0.66
-0.59
-0.56
-0.54
-0.49
-0.43
-0.39
-0.40
-0.47
-0.54
-0.57
-0.50
-0.36
-0.19
-0.06
0.01
0.05
0.13
0.24
0.35
0.36
0.20
-0.09
-0.39
-0.56
-0.49
-0.20
0.17
0.48
0.61
0.56
0.39
0.18
-0.05
-0.30
-0.56
-0.76
-0.80
-0.63
-0.27
0.15
0.45
0.52
0.37
0.09
-0.18
-0.38
-0.51
-0.62
-0.73
-0.80
-0.75
-0.52
-0.13
0.33
0.69
0.83
0.71
0.39
-0.01
-0.37
-0.61
-0.69
-0.61
-0.43
-0.20
-0.00
0.11
0.09
-0.01
-0.15
-0.24
-0.20
-0.02
0.26
0.55
0.75
0.80
0.71
0.54
0.37
0.31
0.38
0.55
0.76
0.91
0.94
0.86
0.74
0.66
0.67
0.78
0.95
1.07
1.08
0.94
0.67
0.34
0.05
-0.12
-0.15
-0.07
0.03
0.07
0.05
0.02
0.03
0.12
0.27
0.39
0.39
0.24
0.03
-0.13
-0.16
-0.04
0.12
0.18
0.08
-0.19
-0.53
-0.82
-1.00
-1.07
-1.09
-1.12
-1.15
-1.14
-1.04
-0.82
-0.49
-0.12
0.21
0.43
0.52
0.49
0.38
0.24
0.10
0.01
-0.01
0.04
0.13
0.22
0.27
0.27
0.24
0.23
0.26
0.33
0.39
0.39
0.33
0.25
0.21
0.25
0.36
0.46
0.48
0.40
0.25
0.12
0.09
0.12
0.16
0.10
-0.12
-0.46
-0.81
-1.07
-1.17
-1.10
-0.92
-0.70
-0.51
-0.39
-0.37
-0.40
-0.42
-0.39
-0.26
-0.09
0.04
0.07
-0.01
-0.08
-0.03
0.23
0.67
1.12
1.39
1.34
0.97
0.42
-0.13
-0.53
-0.75
-0.84
-0.88
-0.95
-1.05
-1.16
-1.22
-1.20
-1.07
-0.84
-0.54
-0.21
0.08
0.27
0.35
0.35
0.33
0.35
0.44
0.57
0.70
0.77
0.76
0.69
0.60
0.49
0.39
0.27
0.14
0.04
-0.02
0.01
0.11
0.22
0.29
0.26
0.13
-0.04
-0.22
-0.34
-0.40
-0.39
-0.34
-0.25
-0.14
-0.01
0.12
0.22
0.28
0.29
0.24
0.18
0.13
0.14
0.21
0.36
0.53
0.69
0.80
0.83
0.79
0.70
0.60
0.53
0.50
0.47
0.41
0.28
0.09
-0.11
-0.21
-0.16
0.06
0.37
0.64
0.75
0.62
0.30
-0.13
-0.52
-0.74
-0.75
-0.54
-0.18
0.19
0.45
0.49
0.27
-0.15
-0.68
-1.19
-1.57
-1.75
-1.72
-1.54
-1.25
-0.95
-0.70
-0.51
-0.40
-0.36
-0.39
-0.50
-0.67
-0.85
-0.98
-0.97
-0.78
-0.44
-0.02
0.38
0.71
0.97
1.16
1.29
1.37
1.38
1.31
1.17
1.00
0.84
0.72
0.67
0.67
0.75
0.85
0.90
0.83
0.57
0.14
-0.39
-0.90
-1.27
-1.43
-1.37
-1.11
-0.72
-0.29
0.11
0.40
0.52
0.47
0.28
0.03
-0.17
-0.21
-0.10
0.13
0.35
0.48
0.44
0.28
0.07
-0.12
-0.26
-0.33
-0.35
-0.34
-0.28
-0.19
-0.15
-0.24
-0.51
-0.95
-1.45
-1.85
-2.02
-1.92
-1.56
-1.03
-0.44
0.12
0.56
0.82
0.85
0.65
0.31
-0.05
-0.30
-0.38
-0.27
-0.05
0.23
0.51
0.75
0.97
1.12
1.17
1.07
0.80
0.45
0.14
0.02
0.17
0.55
1.02
1.39
1.53
1.42
1.14
0.83
0.60
0.48
0.42
0.34
0.22
0.02
-0.21
-0.44
-0.62
-0.71
-0.68
-0.51
-0.23
0.09
0.34
0.43
0.29
-0.05
-0.50
-0.89
-1.11
-1.09
-0.88
-0.58
-0.32
-0.16
-0.09
-0.05
0.02
0.11
0.16
0.10
-0.06
-0.25
-0.33
-0.22
0.07
0.41
0.62
0.60
0.35
-0.01
-0.32
-0.48
-0.47
-0.35
-0.21
-0.06
0.09
0.27
0.43
0.50
0.40
0.12
-0.25
-0.59
-0.76
-0.69
-0.44
-0.11
0.18
0.36
0.45
0.49
0.54
0.63
0.71
0.76
0.73
0.64
0.52
0.42
0.35
0.29
0.18
-0.02
-0.30
-0.59
-0.82
-0.93
-0.91
-0.78
-0.62
-0.46
-0.34
-0.27
-0.21
-0.16
-0.08
0.02
0.14
0.25
0.34
0.37
0.36
0.29
0.16
-0.03
-0.27
-0.52
-0.75
-0.88
-0.88
-0.72
-0.43
-0.08
0.25
0.48
0.57
0.56
0.50
0.45
0.40
0.34
0.19
-0.08
-0.43
-0.78
-1.01
-1.07
-0.95
-0.70
-0.42
-0.17
0.01
0.11
0.13
0.11
0.09
0.11
0.21
0.38
0.58
0.72
0.76
0.69
0.57
0.47
0.45
0.47
0.46
0.34
0.09
-0.22
-0.48
-0.62
-0.59
-0.44
-0.27
-0.14
-0.08
-0.08
-0.08
-0.06
0.00
0.08
0.15
0.21
0.26
0.32
0.41
0.54
0.67
0.80
0.89
0.95
0.98
0.98
0.92
0.80
0.63
0.45
0.34
0.35
0.43
0.51
0.50
0.37
0.17
-0.02
-0.11
-0.09
-0.04
-0.04
-0.13
-0.28
-0.41
-0.44
-0.38
-0.31
-0.32
-0.49
-0.76
-1.04
-1.20
-1.20
-1.05
-0.85
-0.71
-0.69
-0.79
-0.95
-1.09
-1.12
-1.00
-0.75
-0.45
-0.17
0.03
0.13
0.18
0.24
0.37
0.56
0.74
0.81
0.74
0.59
0.45
0.43
0.55
0.72
0.81
0.74
0.56
0.40
0.39
0.53
0.72
0.79
0.64
0.29
-0.13
-0.47
-0.67
-0.73
-0.73
-0.71
-0.66
-0.56
-0.38
-0.15
0.06
0.21
0.29
0.30
0.26
0.14
-0.08
-0.38
-0.68
-0.88
-0.89
-0.70
-0.39
-0.07
0.13
0.16
0.04
-0.16
-0.37
-0.52
-0.58
-0.53
-0.38
-0.15
0.08
0.26
0.32
0.28
0.17
0.08
0.09
0.21
0.41
0.60
0.71
0.69
0.55
0.30
0.01
-0.25
-0.38
-0.36
-0.17
0.12
0.39
0.56
0.58
0.47
0.31
0.16
0.05
-0.06
-0.19
-0.34
-0.48
-0.55
-0.57
-0.55
-0.56
-0.65
-0.79
-0.89
-0.85
-0.62
-0.24
0.19
0.55
0.75
0.76
0.63
0.41
0.14
-0.13
-0.38
-0.56
-0.64
-0.59
-0.41
-0.17
0.04
0.16
0.15
0.05
-0.09
-0.21
-0.27
-0.27
-0.23
-0.15
-0.02
0.19
0.47
0.76
0.99
1.10
1.07
0.96
0.86
0.83
0.91
1.06
1.21
1.30
1.26
1.04
0.70
0.32
-0.00
-0.17
-0.17
-0.09
-0.02
-0.05
-0.17
-0.28
-0.28
-0.10
0.19
0.43
0.44
0.17
-0.30
-0.78
-1.07
-1.08
-0.86
-0.53
-0.24
-0.07
-0.01
-0.01
-0.03
-0.05
-0.11
-0.26
-0.48
-0.74
-0.98
-1.11
-1.08
-0.90
-0.61
-0.33
-0.16
-0.17
-0.34
-0.56
-0.67
-0.55
-0.20
0.28
0.73
1.01
1.09
1.04
0.96
0.90
0.89
0.86
0.77
0.60
0.38
0.16
0.01
-0.02
0.08
0.27
0.47
0.58
0.51
0.23
-0.18
-0.59
-0.84
-0.89
-0.75
-0.53
-0.36
-0.30
-0.36
-0.51
-0.69
-0.85
-0.95
-0.93
-0.77
-0.48
-0.12
0.19
0.36
0.34
0.15
-0.13
-0.37
-0.51
-0.50
-0.37
-0.17
0.08
0.34
0.59
0.80
0.94
0.95
0.83
0.59
0.32
0.13
0.09
0.21
0.45
0.66
0.74
0.66
0.44
0.18
-0.03
-0.14
-0.19
-0.21
-0.27
-0.38
-0.51
-0.63
-0.70
-0.73
-0.74
-0.72
-0.63
-0.42
-0.07
0.35
0.72
0.86
0.69
0.24
-0.33
-0.82
-1.05
-0.99
-0.73
-0.42
-0.19
-0.11
-0.13
-0.21
-0.28
-0.33
-0.37
-0.40
-0.42
-0.40
-0.34
-0.27
-0.23
-0.25
-0.32
-0.39
-0.38
-0.24
0.05
0.43
0.80
1.07
1.18
1.13
0.98
0.79
0.63
0.52
0.49
0.49
0.52
0.53
0.50
0.41
0.27
0.14
0.06
0.09
0.22
0.40
0.54
0.58
0.51
0.35
0.17
0.00
-0.12
-0.19
-0.21
-0.19
-0.15
-0.09
0.01
0.16
0.38
0.63
0.87
1.02
1.02
0.86
0.61
0.36
0.18
0.08
0.02
-0.05
-0.16
-0.31
-0.47
-0.63
-0.78
-0.90
-1.00
-1.05
-1.03
-0.91
-0.71
-0.46
-0.19
0.06
0.27
0.42
0.51
0.52
0.45
0.29
0.06
-0.20
-0.43
-0.54
-0.50
-0.28
0.05
0.39
0.63
0.69
0.57
0.36
0.15
0.05
0.08
0.21
0.34
0.42
0.40
0.29
0.13
-0.04
-0.19
-0.28
-0.28
-0.17
0.02
0.24
0.42
0.49
0.39
0.15
-0.17
-0.51
-0.76
-0.89
-0.86
-0.69
-0.43
-0.14
0.11
0.26
0.26
0.11
-0.15
-0.42
-0.61
-0.62
-0.46
-0.17
0.13
0.32
0.35
0.23
0.03
-0.18
-0.33
-0.40
-0.41
-0.38
-0.32
-0.24
-0.14
-0.02
0.09
0.16
0.14
0.07
-0.03
-0.07
-0.00
0.20
0.46
0.68
0.73
0.56
0.20
-0.25
-0.61
-0.78
-0.70
-0.45
-0.13
0.13
0.24
0.19
0.03
-0.16
-0.33
-0.43
-0.47
-0.49
-0.49
-0.49
-0.46
-0.38
-0.25
-0.10
0.05
0.16
0.20
0.18
0.13
0.06
0.00
-0.01
0.02
0.10
0.20
0.29
0.38
0.45
0.53
0.62
0.73
0.81
0.84
0.77
0.62
0.40
0.20
0.07
0.02
0.05
0.08
0.08
-0.00
-0.15
-0.32
-0.46
-0.54
-0.55
-0.54
-0.54
-0.58
-0.59
-0.52
-0.32
-0.01
0.32
0.51
0.45
0.15
-0.26
-0.60
-0.70
-0.53
-0.19
0.14
0.34
0.39
0.33
0.26
0.26
0.31
0.38
0.42
0.43
0.42
0.42
0.43
0.43
0.38
0.25
0.08
-0.09
-0.19
-0.19
-0.09
0.09
0.31
0.51
0.65
0.71
0.66
0.51
0.28
0.02
-0.19
-0.32
-0.35
-0.28
-0.15
0.00
0.15
0.26
0.34
0.36
0.30
0.16
-0.02
-0.17
-0.23
-0.20
-0.10
0.03
0.13
0.16
0.14
0.07
-0.02
-0.12
-0.21
-0.25
-0.23
-0.15
-0.06
-0.02
-0.07
-0.22
-0.40
-0.50
-0.47
-0.30
-0.09
0.06
0.06
-0.10
-0.34
-0.56
-0.65
-0.58
-0.37
-0.10
0.17
0.40
0.58
0.73
0.86
0.93
0.91
0.76
0.51
0.24
0.05
0.01
0.12
0.31
0.42
0.36
0.11
-0.23
-0.52
-0.64
-0.56
-0.33
-0.09
0.06
0.08
0.02
-0.04
-0.05
0.01
0.06
0.04
-0.09
-0.28
-0.45
-0.54
-0.54
-0.52
-0.56
-0.67
-0.85
-1.02
-1.11
-1.08
-0.93
-0.71
-0.47
-0.27
-0.14
-0.09
-0.12
-0.19
-0.25
-0.27
-0.23
-0.16
-0.12
-0.17
-0.34
-0.58
-0.84
-1.02
-1.05
-0.91
-0.61
-0.25
0.09
0.34
0.51
0.64
0.78
0.92
1.03
1.04
0.94
0.79
0.65
0.62
0.70
0.83
0.93
0.91
0.76
0.51
0.24
0.04
-0.07
-0.11
-0.12
-0.15
-0.23
-0.33
-0.39
-0.34
-0.17
0.08
0.32
0.43
0.37
0.15
-0.13
-0.34
-0.39
-0.27
-0.02
0.25
0.44
0.50
0.41
0.22
-0.04
-0.33
-0.61
-0.86
-1.03
-1.04
-0.83
-0.42
0.15
0.74
1.20
1.44
1.43
1.23
0.95
0.67
0.43
0.24
0.11
0.05
0.08
0.20
0.38
0.54
0.61
0.55
0.38
0.16
-0.03
-0.16
-0.21
-0.16
-0.04
0.14
0.34
0.49
0.54
0.45
0.27
0.07
-0.06
-0.10
-0.09
-0.09
-0.16
-0.26
-0.34
-0.32
-0.20
-0.03
0.11
0.20
0.26
0.32
0.39
0.42
0.32
0.05
-0.34
-0.72
-0.97
-1.07
-1.04
-0.99
-0.97
-0.97
-0.90
-0.70
-0.37
0.02
0.33
0.50
0.49
0.36
0.17
-0.01
-0.12
-0.18
-0.18
-0.16
-0.10
-0.02
0.10
0.22
0.30
0.28
0.15
-0.04
-0.22
-0.32
-0.28
-0.12
0.09
0.28
0.36
0.31
0.12
-0.17
-0.49
-0.75
-0.87
-0.79
-0.54
-0.16
0.23
0.54
0.72
0.76
0.68
0.50
0.21
-0.15
-0.52
-0.82
-0.95
-0.89
-0.66
-0.36
-0.11
-0.00
-0.06
-0.23
-0.44
-0.59
-0.62
-0.52
-0.29
0.04
0.39
0.71
0.93
1.02
0.97
0.82
0.62
0.42
0.28
0.25
0.34
0.54
0.78
0.97
1.03
0.92
0.66
0.28
-0.15
-0.56
-0.91
-1.14
-1.20
-1.08
-0.81
-0.46
-0.11
0.16
0.32
0.41
0.48
0.55
0.60
0.55
0.37
0.07
-0.27
-0.54
-0.66
-0.66
-0.59
-0.53
-0.50
-0.46
-0.36
-0.16
0.08
0.27
0.29
0.13
-0.20
-0.58
-0.91
-1.12
-1.19
-1.13
-0.96
-0.72
-0.46
-0.21
0.00
0.15
0.25
0.35
0.48
0.67
0.90
1.13
1.33
1.43
1.41
1.25
0.99
0.70
0.46
0.32
0.27
0.27
0.23
0.12
-0.07
-0.26
-0.36
-0.30
-0.10
0.14
0.30
0.30
0.14
-0.09
-0.27
-0.34
-0.30
-0.20
-0.10
-0.03
0.07
0.22
0.43
0.63
0.70
0.58
0.28
-0.08
-0.38
-0.50
-0.45
-0.32
-0.20
-0.20
-0.31
-0.49
-0.64
-0.68
-0.61
-0.44
-0.23
-0.02
0.17
0.35
0.53
0.71
0.86
0.95
0.95
0.86
0.71
0.52
0.32
0.13
-0.05
-0.23
-0.40
-0.53
-0.60
-0.59
-0.51
-0.37
-0.19
0.01
0.20
0.36
0.47
0.49
0.44
0.34
0.24
0.19
0.21
0.26
0.28
0.20
0.00
-0.26
-0.50
-0.65
-0.67
-0.60
-0.46
-0.30
-0.12
0.07
0.24
0.33
0.26
-0.00
-0.40
-0.81
-1.08
-1.14
-1.00
-0.74
-0.44
-0.14
0.16
0.49
0.82
1.04
1.08
0.89
0.55
0.20
0.02
0.05
0.24
0.43
0.43
0.18
-0.28
-0.78
-1.16
-1.28
-1.15
-0.84
-0.47
-0.12
0.17
0.41
0.60
0.72
0.74
0.64
0.44
0.20
0.01
-0.09
-0.10
-0.04
0.00
-0.01
-0.08
-0.18
-0.27
-0.34
-0.35
-0.32
-0.23
-0.08
0.08
0.19
0.19
0.03
-0.24
-0.51
-0.64
-0.57
-0.32
-0.01
0.18
0.16
-0.09
-0.48
-0.89
-1.21
-1.38
-1.35
-1.13
-0.76
-0.31
0.16
0.53
0.75
0.81
0.76
0.64
0.50
0.35
0.19
0.04
-0.06
-0.07
0.04
0.23
0.44
0.60
0.66
0.63
0.55
0.45
0.38
0.36
0.43
0.62
0.91
1.26
1.56
1.70
1.60
1.28
0.86
0.48
0.25
0.16
0.17
0.16
0.05
-0.13
-0.31
-0.41
-0.39
-0.26
-0.10
-0.01
-0.03
-0.16
-0.36
-0.57
-0.75
-0.91
-1.05
-1.16
-1.19
-1.07
-0.79
-0.39
0.01
0.32
0.46
0.45
0.37
0.30
0.26
0.24
0.19
0.10
-0.00
-0.06
-0.04
0.02
0.06
0.02
-0.12
-0.31
-0.49
-0.56
-0.52
-0.41
-0.31
-0.30
-0.41
-0.58
-0.74
-0.78
-0.69
-0.51
-0.30
-0.12
0.00
0.10
0.22
0.35
0.50
0.60
0.64
0.63
0.59
0.54
0.46
0.32
0.11
-0.15
-0.39
-0.53
-0.52
-0.40
-0.22
-0.09
-0.04
-0.09
-0.16
-0.17
-0.09
0.07
0.21
0.25
0.15
-0.07
-0.29
-0.40
-0.35
-0.15
0.10
0.29
0.35
0.29
0.15
0.03
-0.01
0.07
0.26
0.50
0.70
0.79
0.73
0.56
0.41
0.39
0.53
0.79
1.03
1.10
0.94
0.59
0.17
-0.20
-0.48
-0.68
-0.83
-0.94
-0.98
-0.91
-0.75
-0.55
-0.40
-0.37
-0.45
-0.57
-0.62
-0.50
-0.22
0.16
0.51
0.73
0.73
0.53
0.19
-0.16
-0.40
-0.48
-0.41
-0.27
-0.14
-0.09
-0.14
-0.23
-0.31
-0.34
-0.30
-0.23
-0.16
-0.06
0.06
0.22
0.39
0.50
0.48
0.30
0.02
-0.24
-0.39
-0.39
-0.28
-0.16
-0.10
-0.12
-0.15
-0.12
0.03
0.25
0.46
0.56
0.51
0.31
0.08
-0.10
-0.17
-0.12
0.03
0.24
0.49
0.73
0.91
0.96
0.82
0.51
0.13
-0.15
-0.22
-0.09
0.14
0.28
0.22
0.00
-0.24
-0.35
-0.27
-0.09
0.02
-0.06
-0.35
-0.71
-0.96
-0.98
-0.78
-0.47
-0.18
0.02
0.13
0.23
0.36
0.52
0.65
0.71
0.68
0.58
0.47
0.38
0.36
0.41
0.50
0.57
0.56
0.44
0.21
-0.04
-0.24
-0.32
-0.27
-0.16
-0.04
0.05
0.09
0.11
0.06
-0.07
-0.31
-0.58
-0.76
-0.72
-0.43
0.00
0.36
0.46
0.25
-0.16
-0.57
-0.77
-0.72
-0.49
-0.22
-0.01
0.08
0.08
0.01
-0.10
-0.26
-0.44
-0.61
-0.70
-0.64
-0.43
-0.10
0.26
0.60
0.87
1.05
1.14
1.14
1.03
0.86
0.64
0.44
0.31
0.26
0.30
0.38
0.43
0.39
0.24
-0.01
-0.27
-0.45
-0.53
-0.53
-0.52
-0.57
-0.67
-0.72
-0.58
-0.22
0.29
0.74
0.93
0.77
0.36
-0.12
-0.49
-0.67
-0.74
-0.79
-0.90
-1.00
-1.00
-0.85
-0.56
-0.27
-0.10
-0.12
-0.28
-0.48
-0.60
-0.59
-0.47
-0.31
-0.17
-0.12
-0.17
-0.28
-0.42
-0.49
-0.41
-0.17
0.21
0.61
0.91
1.01
0.87
0.55
0.15
-0.16
-0.27
-0.14
0.15
0.47
0.67
0.70
0.59
0.47
0.42
0.44
0.42
0.22
-0.21
-0.77
-1.24
-1.42
-1.23
-0.80
-0.34
-0.05
0.01
-0.10
-0.26
-0.39
-0.47
-0.55
-0.62
-0.64
-0.55
-0.35
-0.09
0.13
0.24
0.28
0.32
0.43
0.63
0.86
1.01
1.03
0.94
0.80
0.71
0.69
0.70
0.67
0.53
0.31
0.09
-0.05
-0.02
0.17
0.44
0.70
0.83
0.80
0.62
0.37
0.17
0.10
0.16
0.31
0.46
0.50
0.38
0.13
-0.18
-0.45
-0.57
-0.50
-0.25
0.12
0.52
0.82
0.95
0.85
0.49
-0.05
-0.67
-1.17
-1.43
-1.35
-1.00
-0.52
-0.10
0.15
0.21
0.16
0.10
0.11
0.17
0.23
0.26
0.26
0.26
0.31
0.37
0.40
0.31
0.05
-0.32
-0.68
-0.91
-0.94
-0.80
-0.64
-0.58
-0.68
-0.88
-1.04
-0.99
-0.66
-0.09
0.58
1.19
1.59
1.73
1.61
1.27
0.80
0.28
-0.18
-0.49
-0.60
-0.50
-0.24
0.09
0.38
0.56
0.61
0.53
0.38
0.19
-0.02
-0.23
-0.42
-0.55
-0.57
-0.46
-0.26
-0.05
0.07
0.06
-0.04
-0.17
-0.22
-0.20
-0.14
-0.13
-0.24
-0.44
-0.64
-0.78
-0.79
-0.72
-0.64
-0.60
-0.63
-0.68
-0.67
-0.55
-0.33
-0.10
0.05
0.08
-0.01
-0.13
-0.17
-0.07
0.18
0.49
0.79
1.00
1.13
1.19
1.22
1.23
1.23
1.20
1.10
0.93
0.71
0.46
0.21
-0.02
-0.25
-0.48
-0.73
-0.96
-1.09
-1.08
-0.91
-0.66
-0.44
-0.32
-0.35
-0.47
-0.57
-0.60
-0.55
-0.47
-0.41
-0.37
-0.32
-0.22
-0.05
0.11
0.19
0.10
-0.13
-0.42
-0.64
-0.68
-0.51
-0.20
0.14
0.39
0.46
0.34
0.11
-0.14
-0.31
-0.36
-0.28
-0.11
0.06
0.21
0.32
0.42
0.54
0.69
0.80
0.84
0.77
0.63
0.50
0.44
0.47
0.56
0.61
0.55
0.37
0.13
-0.08
-0.15
-0.03
0.25
0.60
0.89
1.02
0.96
0.70
0.32
-0.09
-0.46
-0.71
-0.81
-0.75
-0.54
-0.26
0.02
0.19
0.21
0.07
-0.14
-0.31
-0.35
-0.24
-0.03
0.19
0.31
0.30
0.17
-0.02
-0.19
-0.31
-0.39
-0.42
-0.40
-0.32
-0.16
0.06
0.25
0.33
0.25
0.03
-0.20
-0.32
-0.27
-0.08
0.14
0.26
0.21
0.03
-0.17
-0.26
-0.15
0.12
0.44
0.68
0.75
0.66
0.47
0.27
0.12
0.02
-0.04
-0.08
-0.11
-0.13
-0.13
-0.15
-0.23
-0.41
-0.64
-0.85
-0.90
-0.71
-0.31
0.20
0.64
0.84
0.76
0.47
0.13
-0.13
-0.24
-0.24
-0.23
-0.29
-0.41
-0.53
-0.57
-0.52
-0.42
-0.37
-0.45
-0.62
-0.80
-0.86
-0.75
-0.51
-0.25
-0.05
0.05
0.11
0.21
0.40
0.64
0.83
0.85
0.68
0.40
0.12
-0.02
0.01
0.16
0.35
0.48
0.55
0.55
0.54
0.52
0.46
0.35
0.20
0.04
-0.04
0.03
0.25
0.52
0.71
0.70
0.40
-0.14
-0.79
-1.36
-1.67
-1.63
-1.27
-0.74
-0.22
0.12
0.25
0.19
0.03
-0.13
-0.22
-0.20
-0.08
0.14
0.41
0.64
0.76
0.73
0.53
0.24
-0.06
-0.33
-0.53
-0.68
-0.76
-0.76
-0.65
-0.42
-0.10
0.21
0.43
0.51
0.42
0.24
0.03
-0.14
-0.22
-0.21
-0.16
-0.11
-0.09
-0.06
-0.00
0.12
0.28
0.42
0.49
0.46
0.38
0.32
0.32
0.38
0.42
0.37
0.18
-0.10
-0.37
-0.51
-0.47
-0.28
-0.04
0.11
0.10
-0.05
-0.30
-0.56
-0.75
-0.83
-0.79
-0.65
-0.46
-0.25
-0.08
0.04
0.11
0.17
0.27
0.39
0.50
0.53
0.46
0.33
0.21
0.16
0.16
0.16
0.10
-0.04
-0.18
-0.25
-0.21
-0.07
0.08
0.16
0.12
-0.02
-0.20
-0.34
-0.37
-0.27
-0.08
0.15
0.33
0.38
0.26
-0.02
-0.40
-0.76
-1.01
-1.09
-1.00
-0.79
-0.51
-0.25
-0.06
-0.00
-0.12
-0.41
-0.81
-1.21
-1.51
-1.63
-1.57
-1.43
-1.33
-1.38
-1.65
-2.11
-2.61
-2.95
-2.89
-2.27
-1.12
0.33
1.68
2.51
2.60
1.97
0.96
-0.02
-0.64
-0.83
-0.79
-0.87
-1.37
-2.40
-3.84
-5.41
-6.82
-7.86
-8.45
-8.63
-8.39
-7.76
-6.75
-5.48
-4.15
-2.99
-2.14
-1.52
-0.86
0.17
1.83
4.05
6.44
8.41
9.39
9.06
7.44
4.87
1.84
-1.17
-3.83
-5.99
-7.61
-8.71
-9.41
-9.91
-10.52
-11.60
-13.41
-16.02
-19.19
-22.41
-25.17
-27.16
-28.46
-29.49
-30.80
-32.81
-35.66
-39.18
-43.08
-47.03
-50.86
-54.47
-57.89
-61.26
-64.80
-68.84
-73.61
-78.87
-83.53
-85.46
-81.86
-70.19
-49.28
-20.15
13.96
48.51
79.05
102.56
118.14
126.82
130.69
131.88
131.91
131.49
130.74
129.63
128.10
126.22
124.16
122.16
120.54
119.93
121.10
124.69
130.60
137.46
142.41
141.70
131.77
110.75
79.50
41.69
2.78
-31.70
-57.88
-74.47
-82.61
-84.87
-83.96
-81.76
-79.12
-76.16
-72.89
-69.54
-66.55
-64.32
-62.87
-61.68
-59.99
-57.21
-53.25
-48.57
-43.99
-40.33
-38.00
-36.91
-36.57
-36.29
-35.52
-34.01
-31.86
-29.38
-26.84
-24.39
-21.90
-19.18
-16.05
-12.58
-9.04
-5.85
-3.38
-1.81
-1.08
-0.95
-1.08
-1.20
-1.13
-0.80
-0.24
0.51
1.37
2.24
2.98
3.45
3.55
3.27
2.75
2.19
1.78
1.57
1.48
1.40
1.22
0.98
0.78
0.72
0.75
0.74
0.50
-0.04
-0.78
-1.50
-1.97
-2.14
-2.12
-2.17
-2.51
-3.20
-4.11
-5.00
-5.63
-5.86
-5.69
-5.25
-4.66
-4.05
-3.50
-3.05
-2.77
-2.71
-2.93
-3.40
-4.10
-4.97
-5.98
-7.12
-8.33
-9.52
-10.47
-10.96
-10.89
-10.38
-9.81
-9.68
-10.33
-11.69
-13.22
-14.08
-13.54
-11.41
-8.17
-4.96
-3.08
-3.41
-5.90
-9.53
-12.60
-13.49
-11.40
-6.71
-0.85
4.27
7.03
6.62
3.11
-2.60
-8.79
-12.85
-11.65
-2.62
14.69
37.47
60.03
75.80
80.24
73.07
58.35
42.40
30.65
25.35
25.23
27.06
27.91
26.57
23.54
19.92
16.30
12.33
7.27
0.73
-6.83
-14.17
-19.77
-22.43
-21.90
-18.85
-14.69
-11.04
-9.20
-9.74
-12.45
-16.52
-20.93
-24.83
-27.70
-29.40
-30.14
-30.38
-30.64
-31.35
-32.72
-34.61
-36.58
-38.02
-38.46
-37.76
-36.26
-34.78
-34.26
-35.50
-38.81
-43.93
-49.99
-55.89
-60.57
-63.48
-64.87
-65.72
-67.56
-71.91
-79.73
-90.80
-103.33
-113.82
-117.59
-109.85
-87.42
-50.30
-2.43
49.03
95.81
131.23
152.26
160.06
158.74
153.22
147.43
143.26
140.76
138.65
135.04
128.01
115.98
98.39
76.13
51.43
27.31
6.49
-9.71
-21.50
-29.93
-35.62
-37.71
-33.92
-21.83
-0.44
28.76
62.02
94.76
122.99
144.15
156.78
159.68
151.53
131.61
101.02
63.52
24.99
-8.56
-33.23
-48.48
-56.56
-60.71
-63.25
-64.87
-65.08
-63.30
-59.73
-55.36
-51.29
-48.18
-46.06
-44.58
-43.49
-42.76
-42.51
-42.82
-43.51
-44.13
-44.08
-42.70
-39.53
-34.51
-28.03
-20.94
-14.27
-8.92
-5.38
-3.53
-2.85
-2.61
-2.19
-1.27
0.18
1.92
3.65
5.18
6.40
7.34
8.03
8.50
8.75
8.84
8.88
9.06
9.55
10.33
11.19
11.74
11.55
10.33
8.05
4.89
1.18
-2.75
-6.52
-9.83
-12.42
-14.15
-15.13
-15.67
-16.22
-17.09
-18.33
-19.59
-20.31
-19.93
-18.17
-15.17
-11.42
-7.56
-4.19
-1.65
-0.02
0.88
1.32
1.59
1.87
2.24
2.67
3.02
3.18
3.09
2.78
2.36
1.91
1.48
1.06
0.62
0.17
-0.29
-0.67
-0.93
-1.03
-0.99
-0.85
-0.68
-0.57
-0.58
-0.74
-1.03
-1.36
-1.64
-1.77
-1.70
-1.51
-1.32
-1.30
-1.60
-2.30
-3.34
-4.61
-5.88
-6.94
-7.64
-7.96
-8.00
-8.03
-8.33
-9.07
-10.22
-11.45
-12.31
-12.38
-11.58
-10.30
-9.26
-9.27
-10.74
-13.44
-16.50
-18.74
-19.22
-17.71
-14.88
-12.05
-10.59
-11.27
-13.79
-16.79
-18.51
-17.53
-13.48
-7.24
-0.51
4.96
7.94
8.04
5.69
2.13
-0.59
0.42
8.17
24.46
48.21
74.79
96.97
107.66
103.08
84.65
58.40
32.20
12.21
0.64
-4.15
-5.69
-6.89
-8.69
-10.30
-10.58
-9.29
-7.47
-6.78
-8.34
-11.95
-16.19
-19.16
-19.45
-16.89
-12.55
-8.19
-5.46
-5.14
-6.90
-9.55
-11.64
-12.12
-10.79
-8.25
-5.58
-3.76
-3.28
-4.00
-5.28
-6.33
-6.57
-5.87
-4.53
-3.07
-2.02
-1.63
-1.83
-2.31
-2.70
-2.74
-2.38
-1.70
-0.89
-0.14
0.46
0.85
1.03
1.01
0.86
0.63
0.40
0.23
0.15
0.17
0.26
0.43
0.65
0.88
1.04
1.07
0.92
0.62
0.23
-0.14
-0.42
-0.59
-0.66
-0.69
-0.71
-0.74
-0.77
-0.80
-0.81
-0.79
-0.73
-0.68
-0.66
-0.72
-0.85
-0.99
-1.05
-0.94
-0.61
-0.11
0.43
0.90
1.19
1.26
1.15
0.93
0.68
0.46
0.30
0.20
0.16
0.20
0.32
0.51
0.74
0.92
0.99
0.92
0.72
0.45
0.17
-0.06
-0.26
-0.42
-0.53
-0.55
-0.42
-0.15
0.21
0.50
0.58
0.38
-0.06
-0.59
-1.02
-1.25
-1.24
-1.08
-0.85
-0.64
-0.50
-0.40
-0.33
-0.26
-0.15
0.00
0.20
0.40
0.54
0.56
0.44
0.22
0.03
-0.02
0.09
0.32
0.55
0.70
0.74
0.70
0.65
0.59
0.50
0.35
0.12
-0.14
-0.34
-0.41
-0.37
-0.27
-0.19
-0.17
-0.17
-0.09
0.11
0.41
0.70
0.85
0.74
0.37
-0.16
-0.69
-1.07
-1.21
-1.12
-0.89
-0.65
-0.47
-0.40
-0.42
-0.50
-0.57
-0.57
-0.48
-0.32
-0.12
0.05
0.14
0.17
0.17
0.18
0.21
0.23
0.17
0.01
-0.19
-0.32
-0.30
-0.13
0.08
0.17
0.00
-0.37
-0.79
-1.01
-0.88
-0.40
0.25
0.84
1.15
1.10
0.74
0.22
-0.27
-0.58
-0.66
-0.51
-0.21
0.17
0.59
1.00
1.37
1.67
1.84
1.80
1.54
1.10
0.57
0.07
-0.26
-0.38
-0.32
-0.14
0.02
0.08
-0.02
-0.26
-0.54
-0.76
-0.82
-0.71
-0.49
-0.27
-0.13
-0.12
-0.18
-0.27
-0.33
-0.34
-0.32
-0.26
-0.17
-0.02
0.20
0.44
0.63
0.69
0.59
0.35
0.07
-0.16
-0.28
-0.29
-0.26
-0.25
-0.31
-0.42
-0.50
-0.53
-0.47
-0.37
-0.27
-0.19
-0.14
-0.10
-0.05
0.00
0.03
0.03
0.01
-0.02
-0.05
-0.07
-0.10
-0.15
-0.21
-0.25
-0.22
-0.07
0.15
0.38
0.53
0.54
0.42
0.25
0.11
0.07
0.11
0.19
0.25
0.27
0.25
0.27
0.36
0.55
0.78
1.01
1.16
1.16
1.00
0.67
0.23
-0.20
-0.52
-0.61
-0.46
-0.11
0.28
0.57
0.65
0.55
0.35
0.19
0.15
0.21
0.26
0.20
-0.03
-0.35
-0.60
-0.64
-0.43
-0.07
0.26
0.37
0.20
-0.18
-0.59
-0.86
-0.90
-0.74
-0.52
-0.39
-0.41
-0.58
-0.79
-0.93
-0.92
-0.76
-0.49
-0.18
0.15
0.46
0.77
1.05
1.26
1.37
1.39
1.36
1.32
1.28
1.20
1.01
0.69
0.29
-0.07
-0.28
-0.29
-0.15
0.03
0.14
0.15
0.12
0.13
0.18
0.26
0.27
0.18
-0.00
-0.20
-0.36
-0.46
-0.56
-0.71
-0.92
-1.16
-1.34
-1.40
-1.31
-1.13
-0.92
-0.71
-0.53
-0.36
-0.21
-0.11
-0.06
-0.09
-0.18
-0.29
-0.38
-0.42
-0.40
-0.31
-0.15
0.10
0.41
0.76
1.06
1.24
1.25
1.11
0.88
0.63
0.43
0.28
0.21
0.20
0.26
0.34
0.42
0.48
0.50
0.48
0.40
0.25
0.02
-0.26
-0.53
-0.71
-0.73
-0.58
-0.34
-0.10
0.04
0.06
-0.00
-0.11
-0.22
-0.33
-0.44
-0.52
-0.59
-0.62
-0.64
-0.64
-0.65
-0.61
-0.51
-0.32
-0.09
0.11
0.14
-0.03
-0.37
-0.73
-0.91
-0.79
-0.35
0.24
0.76
1.03
1.02
0.87
0.77
0.88
1.19
1.52
1.66
1.48
1.00
0.38
-0.18
-0.54
-0.69
-0.72
-0.72
-0.74
-0.75
-0.72
-0.63
-0.48
-0.33
-0.23
-0.21
-0.28
-0.42
-0.61
-0.81
-1.00
-1.12
-1.16
-1.10
-0.99
-0.90
-0.96
-1.23
-1.69
-2.29
-2.89
-3.39
-3.73
-3.90
-3.95
-3.96
-4.02
-4.18
-4.49
-4.90
-5.38
-5.87
-6.36
-6.85
-7.34
-7.80
-8.12
-8.22
-8.08
-7.79
-7.57
-7.68
-8.28
-9.37
-10.73
-12.02
-12.81
-12.69
-11.31
-8.46
-4.11
1.53
7.94
14.45
20.29
24.81
27.65
28.74
28.32
26.79
24.65
22.33
20.18
18.37
16.95
15.85
14.94
14.10
13.26
12.45
11.74
11.22
10.90
10.74
10.62
10.42
9.99
9.17
7.85
6.01
3.76
1.37
-0.84
-2.65
-4.03
-5.18
-6.41
-7.90
-9.58
-11.12
-12.10
-12.26
-11.63
-10.55
-9.45
-8.65
-8.21
-7.94
-7.61
-7.07
-6.37
-5.75
-5.42
-5.50
-5.88
-6.30
-6.47
-6.23
-5.62
-4.82
-4.05
-3.43
-2.97
-2.57
-2.13
-1.62
-1.08
-0.61
-0.28
-0.09
0.02
0.12
0.24
0.37
0.46
0.48
0.41
0.30
0.21
0.17
0.18
0.21
0.20
0.14
0.02
-0.10
-0.17
-0.18
-0.15
-0.17
-0.31
-0.60
-1.00
-1.37
-1.55
-1.44
-1.07
-0.53
-0.02
0.34
0.48
0.42
0.24
0.02
-0.22
-0.45
-0.66
-0.81
-0.84
-0.72
-0.47
-0.16
0.11
0.27
0.30
0.20
0.02
-0.16
-0.32
-0.44
-0.51
-0.53
-0.49
-0.38
-0.20
0.03
0.26
0.44
0.53
0.49
0.34
0.12
-0.11
-0.28
-0.36
-0.30
-0.13
0.12
0.40
0.64
0.76
0.73
0.56
0.30
0.02
-0.22
-0.36
-0.39
-0.31
-0.17
-0.03
0.05
0.03
-0.08
-0.22
-0.32
-0.33
-0.25
-0.14
-0.05
-0.03
-0.03
-0.01
0.08
0.21
0.32
0.32
0.19
-0.02
-0.22
-0.35
-0.38
-0.36
-0.33
-0.30
-0.25
-0.15
0.00
0.16
0.28
0.32
0.30
0.23
0.14
0.06
0.03
0.10
0.30
0.62
0.98
1.25
1.32
1.14
0.80
0.44
0.19
0.12
0.17
0.26
0.26
0.17
-0.00
-0.18
-0.32
-0.40
-0.45
-0.50
-0.56
-0.59
-0.56
-0.43
-0.19
0.12
0.44
0.70
0.81
0.75
0.53
0.20
-0.14
-0.43
-0.60
-0.66
-0.64
-0.58
-0.51
-0.42
-0.27
-0.05
0.20
0.38
0.45
0.39
0.24
0.09
-0.01
-0.08
-0.18
-0.34
-0.55
-0.73
-0.79
-0.67
-0.39
-0.03
0.30
0.50
0.54
0.41
0.16
-0.16
-0.48
-0.73
-0.85
-0.81
-0.65
-0.42
-0.20
-0.03
0.06
0.06
0.00
-0.09
-0.18
-0.22
-0.19
-0.07
0.15
0.42
0.66
0.79
0.77
0.63
0.46
0.38
0.46
0.71
1.01
1.23
1.24
1.04
0.73
0.44
0.28
0.27
0.36
0.46
0.50
0.44
0.30
0.09
-0.19
-0.54
-0.93
-1.29
-1.54
-1.59
-1.45
-1.19
-0.92
-0.74
-0.63
-0.54
-0.38
-0.12
0.16
0.32
0.29
0.06
-0.25
-0.44
-0.41
-0.17
0.13
0.32
0.27
-0.01
-0.40
-0.75
-0.96
-1.00
-0.92
-0.75
-0.52
-0.22
0.14
0.53
0.90
1.17
1.32
1.34
1.29
1.18
1.03
0.82
0.54
0.24
-0.04
-0.22
-0.28
-0.19
-0.00
0.21
0.38
0.44
0.39
0.30
0.23
0.24
0.35
0.47
0.49
0.33
-0.00
-0.42
-0.77
-0.94
-0.88
-0.65
-0.38
-0.15
-0.03
-0.01
-0.01
0.01
0.06
0.12
0.14
0.06
-0.10
-0.30
-0.48
-0.59
-0.63
-0.65
-0.69
-0.77
-0.83
-0.80
-0.64
-0.36
-0.03
0.26
0.45
0.54
0.58
0.60
0.65
0.73
0.83
0.95
1.06
1.16
1.20
1.13
0.97
0.76
0.54
0.36
0.21
0.05
-0.17
-0.43
-0.69
-0.84
-0.83
-0.64
-0.36
-0.08
0.13
0.23
0.26
0.25
0.23
0.21
0.19
0.15
0.07
-0.07
-0.27
-0.50
-0.75
-0.98
-1.15
-1.25
-1.27
-1.20
-1.07
-0.89
-0.70
-0.56
-0.50
-0.52
-0.59
-0.64
-0.60
-0.46
-0.23
0.04
0.31
0.55
0.79
1.02
1.23
1.38
1.41
1.31
1.11
0.88
0.65
0.43
0.24
0.08
-0.00
0.04
0.21
0.46
0.69
0.79
0.70
0.44
0.10
-0.22
-0.44
-0.55
-0.56
-0.50
-0.43
-0.36
-0.31
-0.29
-0.31
-0.37
-0.47
-0.57
-0.64
-0.65
-0.59
-0.47
-0.32
-0.15
0.03
0.20
0.34
0.36
0.23
-0.08
-0.47
-0.81
-0.96
-0.86
-0.57
-0.23
0.03
0.14
0.11
0.02
-0.05
-0.05
0.05
0.25
0.53
0.83
1.09
1.25
1.26
1.14
0.94
0.73
0.55
0.40
0.26
0.14
0.04
-0.00
0.04
0.16
0.32
0.44
0.43
0.29
0.04
-0.22
-0.37
-0.37
-0.20
0.04
0.27
0.41
0.45
0.41
0.31
0.19
0.05
-0.13
-0.34
-0.59
-0.84
-1.05
-1.21
-1.30
-1.34
-1.35
-1.33
-1.25
-1.06
-0.72
-0.26
0.25
0.65
0.81
0.68
0.31
-0.13
-0.46
-0.54
-0.38
-0.07
0.20
0.32
0.24
0.04
-0.12
-0.12
0.07
0.38
0.65
0.76
0.67
0.41
0.13
-0.08
-0.17
-0.15
-0.07
-0.01
0.02
0.04
0.11
0.30
0.62
1.00
1.32
1.47
1.40
1.16
0.91
0.75
0.73
0.81
0.91
0.97
1.00
1.02
1.05
1.04
0.92
0.65
0.29
-0.07
-0.30
-0.37
-0.31
-0.20
-0.11
-0.10
-0.16
-0.29
-0.48
-0.69
-0.88
-1.03
-1.12
-1.19
-1.28
-1.40
-1.50
-1.48
-1.27
-0.85
-0.31
0.25
0.69
0.92
0.93
0.73
0.41
0.07
-0.20
-0.33
-0.29
-0.13
0.11
0.35
0.55
0.70
0.78
0.77
0.62
0.33
-0.09
-0.55
-0.97
-1.25
-1.35
-1.31
-1.16
-0.97
-0.77
-0.57
-0.38
-0.21
-0.05
0.09
0.20
0.26
0.27
0.22
0.11
-0.03
-0.20
-0.36
-0.47
-0.52
-0.52
-0.49
-0.43
-0.35
-0.24
-0.12
0.02
0.17
0.30
0.39
0.40
0.30
0.08
-0.20
-0.47
-0.61
-0.57
-0.36
-0.07
0.20
0.37
0.44
0.47
0.54
0.69
0.89
1.07
1.15
1.11
0.95
0.71
0.46
0.25
0.13
0.08
0.07
0.05
-0.02
-0.18
-0.39
-0.61
-0.79
-0.88
-0.87
-0.78
-0.63
-0.47
-0.32
-0.22
-0.17
-0.18
-0.22
-0.28
-0.35
-0.39
-0.38
-0.29
-0.08
0.23
0.58
0.87
0.98
0.85
0.50
0.03
-0.39
-0.63
-0.63
-0.44
-0.17
0.02
0.06
-0.08
-0.32
-0.58
-0.78
-0.87
-0.83
-0.67
-0.40
-0.07
0.27
0.52
0.63
0.58
0.43
0.24
0.10
0.02
0.03
0.10
0.21
0.37
0.55
0.71
0.78
0.73
0.56
0.33
0.13
0.03
0.04
0.12
0.19
0.22
0.17
0.04
-0.14
-0.34
-0.55
-0.72
-0.81
-0.77
-0.56
-0.22
0.20
0.58
0.80
0.81
0.61
0.29
-0.02
-0.24
-0.31
-0.27
-0.15
-0.02
0.12
0.28
0.50
0.75
1.00
1.15
1.15
0.98
0.67
0.29
-0.10
-0.42
-0.64
-0.76
-0.77
-0.68
-0.47
-0.16
0.25
0.70
1.11
1.42
1.57
1.58
1.45
1.25
0.99
0.68
0.29
-0.15
-0.60
-0.94
-1.09
-1.00
-0.74
-0.42
-0.14
0.01
0.05
0.03
0.00
-0.03
-0.08
-0.18
-0.32
-0.44
-0.48
-0.41
-0.27
-0.18
-0.25
-0.49
-0.79
-0.97
-0.90
-0.54
-0.04
0.38
0.52
0.33
-0.04
-0.41
-0.62
-0.65
-0.60
-0.57
-0.60
-0.62
-0.53
-0.29
0.05
0.32
0.40
0.25
-0.05
-0.36
-0.57
-0.68
-0.75
-0.79
-0.78
-0.64
-0.35
0.05
0.44
0.63
0.52
0.18
-0.22
-0.47
-0.44
-0.16
0.23
0.54
0.67
0.62
0.51
0.45
0.49
0.60
0.72
0.75
0.69
0.55
0.36
0.17
-0.01
-0.19
-0.35
-0.47
-0.51
-0.46
-0.30
-0.07
0.18
0.37
0.42
0.29
0.02
-0.28
-0.47
-0.47
-0.27
0.04
0.32
0.45
0.34
0.03
-0.37
-0.71
-0.88
-0.81
-0.55
-0.20
0.12
0.30
0.29
0.12
-0.14
-0.40
-0.58
-0.65
-0.59
-0.40
-0.12
0.22
0.56
0.85
1.10
1.31
1.48
1.63
1.70
1.66
1.49
1.17
0.76
0.33
-0.06
-0.34
-0.47
-0.45
-0.31
-0.13
0.02
0.10
0.10
0.08
0.06
0.06
0.03
-0.08
-0.27
-0.48
-0.61
-0.55
-0.30
0.06
0.36
0.47
0.33
-0.01
-0.44
-0.83
-1.08
-1.16
-1.10
-0.97
-0.83
-0.73
-0.67
-0.62
-0.53
-0.39
-0.21
-0.04
0.06
0.06
0.01
-0.01
0.09
0.34
0.70
1.06
1.30
1.32
1.13
0.84
0.55
0.36
0.28
0.24
0.14
-0.04
-0.27
-0.47
-0.59
-0.63
-0.64
-0.68
-0.72
-0.69
-0.52
-0.23
0.07
0.26
0.22
-0.01
-0.30
-0.49
-0.51
-0.37
-0.21
-0.12
-0.15
-0.24
-0.28
-0.23
-0.10
0.07
0.20
0.27
0.32
0.37
0.45
0.53
0.54
0.48
0.38
0.31
0.32
0.44
0.60
0.73
0.77
0.68
0.49
0.23
-0.06
-0.34
-0.57
-0.69
-0.66
-0.49
-0.21
0.08
0.27
0.28
0.11
-0.16
-0.41
-0.50
-0.41
-0.19
0.03
0.11
-0.04
-0.36
-0.68
-0.81
-0.65
-0.20
0.35
0.80
1.00
0.91
0.62
0.30
0.06
-0.04
-0.00
0.11
0.22
0.27
0.23
0.08
-0.12
-0.32
-0.41
-0.35
-0.16
0.07
0.21
0.19
-0.00
-0.31
-0.62
-0.85
-0.96
-0.93
-0.78
-0.54
-0.29
-0.06
0.08
0.11
0.04
-0.09
-0.25
-0.38
-0.46
-0.49
-0.48
-0.45
-0.42
-0.40
-0.40
-0.38
-0.28
-0.03
0.35
0.79
1.14
1.28
1.17
0.87
0.57
0.42
0.50
0.71
0.89
0.87
0.58
0.13
-0.31
-0.58
-0.63
-0.52
-0.35
-0.23
-0.20
-0.23
-0.27
-0.27
-0.20
-0.06
0.14
0.35
0.55
0.68
0.75
0.75
0.71
0.63
0.51
0.34
0.15
-0.00
-0.05
0.01
0.13
0.20
0.14
-0.05
-0.31
-0.51
-0.55
-0.44
-0.23
-0.04
0.06
0.07
0.03
0.01
0.06
0.16
0.29
0.40
0.46
0.46
0.41
0.30
0.16
0.03
-0.02
0.03
0.21
0.42
0.56
0.52
0.30
-0.04
-0.36
-0.56
-0.61
-0.55
-0.44
-0.31
-0.16
0.03
0.22
0.37
0.41
0.32
0.14
-0.03
-0.12
-0.11
-0.08
-0.08
-0.14
-0.23
-0.28
-0.28
-0.23
-0.22
-0.31
-0.48
-0.66
-0.71
-0.55
-0.18
0.24
0.52
0.50
0.16
-0.35
-0.80
-1.03
-1.00
-0.83
-0.67
-0.62
-0.63
-0.60
-0.42
-0.06
0.39
0.75
0.91
0.83
0.58
0.30
0.11
0.08
0.17
0.31
0.41
0.40
0.29
0.10
-0.11
-0.30
-0.45
-0.56
-0.64
-0.65
-0.60
-0.47
-0.31
-0.20
-0.18
-0.24
-0.31
-0.27
-0.07
0.30
0.74
1.13
1.33
1.30
1.10
0.78
0.44
0.11
-0.16
-0.37
-0.48
-0.48
-0.39
-0.25
-0.12
-0.04
-0.02
-0.01
-0.00
0.03
0.03
-0.04
-0.24
-0.51
-0.77
-0.92
-0.89
-0.66
-0.32
0.04
0.32
0.47
0.52
0.50
0.49
0.51
0.53
0.55
0.54
0.48
0.41
0.32
0.24
0.16
0.12
0.11
0.17
0.29
0.44
0.54
0.55
0.43
0.20
-0.08
-0.33
-0.47
-0.49
-0.40
-0.26
-0.13
-0.06
-0.07
-0.16
-0.32
-0.54
-0.79
-1.03
-1.19
-1.24
-1.14
-0.95
-0.72
-0.50
-0.34
-0.20
-0.08
0.03
0.12
0.16
0.15
0.12
0.11
0.16
0.27
0.43
0.62
0.81
1.02
1.24
1.44
1.62
1.73
1.75
1.66
1.46
1.17
0.85
0.56
0.36
0.25
0.20
0.11
-0.07
-0.37
-0.73
-1.04
-1.23
-1.26
-1.16
-1.00
-0.83
-0.65
-0.43
-0.14
0.19
0.48
0.63
0.57
0.30
-0.07
-0.44
-0.68
-0.75
-0.65
-0.40
-0.09
0.23
0.48
0.60
0.56
0.38
0.13
-0.09
-0.21
-0.20
-0.13
-0.07
-0.08
-0.18
-0.34
-0.53
-0.69
-0.82
-0.90
-0.93
-0.87
-0.72
-0.49
-0.22
0.03
0.18
0.19
0.09
-0.05
-0.14
-0.09
0.14
0.48
0.83
1.07
1.14
1.04
0.87
0.73
0.68
0.71
0.75
0.72
0.59
0.36
0.11
-0.13
-0.32
-0.49
-0.66
-0.84
-1.01
-1.09
-1.03
-0.82
-0.51
-0.23
-0.09
-0.13
-0.28
-0.43
-0.47
-0.35
-0.12
0.10
0.21
0.16
-0.01
-0.22
-0.35
-0.38
-0.32
-0.29
-0.40
-0.73
-1.23
-1.78
-2.16
-2.21
-1.87
-1.23
-0.50
0.11
0.47
0.56
0.49
0.41
0.40
0.49
0.66
0.85
1.01
1.11
1.18
1.25
1.41
1.76
2.43
3.49
5.01
6.97
9.23
11.60
13.79
15.50
16.52
16.81
16.46
15.65
14.58
13.31
11.80
9.94
7.68
5.12
2.47
-0.05
-2.29
-4.25
-6.04
-7.77
-9.43
-10.88
-11.93
-12.43
-12.37
-11.89
-11.20
-10.46
-9.73
-8.92
-7.90
-6.63
-5.17
-3.70
-2.41
-1.46
-0.82
-0.41
-0.09
0.24
0.58
0.86
1.00
0.94
0.72
0.40
0.10
-0.10
-0.21
-0.27
-0.37
-0.57
-0.88
-1.25
-1.64
-2.04
-2.48
-3.02
-3.68
-4.43
-5.16
-5.80
-6.38
-6.94
-7.56
-8.22
-8.77
-9.01
-8.79
-8.11
-7.10
-5.94
-4.77
-3.61
-2.40
-1.12
0.16
1.30
2.18
2.75
3.11
3.42
3.79
4.25
4.71
5.05
5.18
5.09
4.81
4.41
3.90
3.31
2.61
1.87
1.19
0.69
0.48
0.56
0.88
1.30
1.69
2.01
2.23
2.38
2.51
2.61
2.67
2.67
2.60
2.50
2.40
2.34
2.28
2.17
1.92
1.50
0.92
0.29
-0.28
-0.69
-0.91
-1.00
-1.05
-1.13
-1.23
-1.32
-1.35
-1.33
-1.28
-1.27
-1.31
-1.40
-1.50
-1.56
-1.56
-1.49
-1.35
-1.13
-0.89
-0.67
-0.56
-0.61
-0.80
-1.07
-1.26
-1.29
-1.13
-0.86
-0.62
-0.52
-0.56
-0.65
-0.66
-0.51
-0.21
0.12
0.34
0.38
0.27
0.11
0.01
0.03
0.10
0.12
0.01
-0.21
-0.47
-0.64
-0.68
-0.60
-0.48
-0.39
-0.35
-0.36
-0.41
-0.47
-0.55
-0.66
-0.77
-0.86
-0.91
-0.89
-0.79
-0.57
-0.23
0.22
0.71
1.10
1.24
1.09
0.68
0.20
-0.15
-0.24
-0.08
0.22
0.50
0.66
0.67
0.59
0.48
0.36
0.20
-0.02
-0.29
-0.57
-0.78
-0.87
-0.83
-0.70
-0.54
-0.39
-0.26
-0.13
0.02
0.18
0.31
0.37
0.31
0.16
-0.04
-0.19
-0.22
-0.08
0.17
0.43
0.56
0.49
0.25
-0.02
-0.19
-0.15
0.05
0.30
0.46
0.46
0.35
0.25
0.29
0.54
0.98
1.49
1.97
2.34
2.57
2.65
2.60
2.48
2.34
2.25
2.23
2.30
2.41
2.51
2.55
2.52
2.44
2.28
2.05
1.72
1.30
0.85
0.46
0.24
0.24
0.43
0.73
1.04
1.24
1.27
1.09
0.68
0.06
-0.68
-1.44
-2.05
-2.37
-2.36
-2.07
-1.66
-1.35
-1.28
-1.52
-1.99
-2.56
-3.09
-3.50
-3.75
-3.85
-3.80
-3.59
-3.25
-2.83
-2.42
-2.11
-1.95
-1.93
-1.99
-2.05
-2.05
-1.96
-1.80
-1.57
-1.28
-0.99
-0.75
-0.62
-0.61
-0.68
-0.70
-0.59
-0.30
0.10
0.51
0.77
0.83
0.71
0.48
0.21
-0.01
-0.16
-0.20
-0.10
0.13
0.43
0.67
0.67
0.28
-0.54
-1.72
-3.05
-4.28
-5.21
-5.75
-5.89
-5.76
-5.54
-5.42
-5.54
-5.96
-6.64
-7.46
-8.26
-8.86
-9.19
-9.21
-8.95
-8.46
-7.75
-6.84
-5.76
-4.60
-3.49
-2.61
-2.04
-1.74
-1.54
-1.20
-0.58
0.35
1.38
2.28
2.79
2.85
2.52
1.97
1.35
0.68
-0.10
-1.15
-2.59
-4.42
-6.46
-8.45
-10.07
-11.13
-11.65
-11.86
-12.10
-12.64
-13.59
-14.77
-15.83
-16.39
-16.11
-14.84
-12.61
-9.69
-6.60
-4.07
-2.90
-3.53
-5.47
-7.08
-5.83
0.75
13.92
32.95
55.25
77.15
95.11
106.55
110.20
105.95
94.71
78.19
58.86
39.66
23.36
11.77
5.25
2.82
2.77
3.51
4.08
4.07
3.39
1.96
-0.29
-3.28
-6.60
-9.65
-11.97
-13.44
-14.42
-15.45
-16.94
-18.86
-20.77
-22.06
-22.28
-21.41
-19.80
-18.03
-16.55
-15.57
-15.01
-14.66
-14.31
-13.85
-13.20
-12.37
-11.41
-10.42
-9.52
-8.84
-8.43
-8.28
-8.25
-8.22
-8.12
-7.94
-7.69
-7.36
-6.93
-6.37
-5.74
-5.14
-4.71
-4.48
-4.39
-4.33
-4.17
-3.89
-3.57
-3.31
-3.16
-3.07
-2.92
-2.63
-2.18
-1.65
-1.13
-0.68
-0.33
-0.04
0.16
0.27
0.27
0.19
0.10
0.05
0.04
0.05
0.02
-0.06
-0.13
-0.12
-0.00
0.19
0.38
0.45
0.37
0.17
-0.09
-0.31
-0.45
-0.48
-0.43
-0.32
-0.20
-0.13
-0.16
-0.31
-0.53
-0.76
-0.89
-0.85
-0.66
-0.40
-0.16
-0.01
0.05
0.08
0.16
0.31
0.50
0.64
0.66
0.56
0.42
0.35
0.45
0.72
1.07
1.34
1.39
1.18
0.79
0.36
0.07
0.02
0.17
0.41
0.60
0.62
0.49
0.27
0.02
-0.19
-0.39
-0.56
-0.68
-0.69
-0.57
-0.33
-0.08
0.05
-0.03
-0.27
-0.56
-0.74
-0.72
-0.54
-0.30
-0.17
-0.22
-0.43
-0.72
-0.99
-1.18
-1.26
-1.25
-1.13
-0.88
-0.45
0.17
0.88
1.57
2.06
2.21
2.02
1.56
1.00
0.52
0.25
0.18
0.25
0.36
0.44
0.46
0.44
0.40
0.36
0.29
0.19
0.06
-0.08
-0.20
-0.27
-0.32
-0.36
-0.43
-0.56
-0.72
-0.87
-0.99
-1.04
-1.06
-1.08
-1.13
-1.24
-1.36
-1.41
-1.32
-1.07
-0.70
-0.30
0.03
0.23
0.29
0.25
0.15
0.05
-0.03
-0.06
-0.03
0.06
0.21
0.36
0.48
0.56
0.60
0.66
0.75
0.85
0.90
0.83
0.63
0.38
0.15
0.02
0.01
0.07
0.09
0.02
-0.15
-0.37
-0.59
-0.76
-0.90
-1.02
-1.11
-1.12
-1.02
-0.79
-0.47
-0.16
0.07
0.16
0.15
0.08
0.05
0.09
0.19
0.34
0.51
0.68
0.85
0.99
1.04
0.93
0.64
0.19
-0.33
-0.77
-1.00
-0.97
-0.71
-0.31
0.09
0.41
0.59
0.66
0.67
0.70
0.78
0.92
1.10
1.26
1.35
1.32
1.19
0.97
0.73
0.51
0.35
0.27
0.25
0.28
0.33
0.34
0.23
-0.05
-0.51
-1.08
-1.60
-1.92
-1.93
-1.65
-1.23
-0.86
-0.69
-0.73
-0.86
-0.94
-0.89
-0.70
-0.46
-0.25
-0.08
0.12
0.40
0.78
1.15
1.37
1.34
1.03
0.53
0.02
-0.33
-0.45
-0.33
-0.06
0.25
0.54
0.79
1.01
1.20
1.36
1.49
1.58
1.62
1.59
1.48
1.28
1.02
0.78
0.65
0.64
0.72
0.75
0.64
0.33
-0.11
-0.58
-0.96
-1.18
-1.26
-1.23
-1.13
-0.94
-0.68
-0.38
-0.12
0.05
0.09
0.02
-0.06
-0.08
-0.01
0.15
0.34
0.49
0.52
0.41
0.19
-0.07
-0.31
-0.45
-0.49
-0.46
-0.39
-0.32
-0.27
-0.27
-0.31
-0.40
-0.55
-0.74
-0.97
-1.20
-1.37
-1.43
-1.36
-1.19
-0.99
-0.84
-0.74
-0.68
-0.57
-0.35
-0.01
0.39
0.69
0.75
0.52
0.04
-0.54
-1.03
-1.34
-1.40
-1.27
-1.02
-0.73
-0.49
-0.29
-0.13
0.05
0.29
0.62
1.01
1.44
1.82
2.08
2.16
2.04
1.79
1.51
1.29
1.18
1.17
1.20
1.22
1.21
1.19
1.19
1.17
1.10
0.92
0.62
0.24
-0.11
-0.35
-0.43
-0.40
-0.32
-0.23
-0.15
-0.05
0.09
0.23
0.29
0.22
0.01
-0.27
-0.52
-0.63
-0.56
-0.38
-0.17
-0.05
-0.05
-0.12
-0.16
-0.13
-0.00
0.13
0.15
-0.01
-0.32
-0.67
-0.93
-1.02
-0.93
-0.76
-0.59
-0.48
-0.41
-0.32
-0.18
-0.03
0.04
-0.06
-0.33
-0.70
-0.98
-1.05
-0.86
-0.47
-0.05
0.26
0.37
0.26
-0.00
-0.34
-0.65
-0.85
-0.90
-0.76
-0.47
-0.15
0.06
0.04
-0.27
-0.78
-1.32
-1.71
-1.85
-1.71
-1.34
-0.82
-0.22
0.38
0.90
1.21
1.26
1.01
0.56
0.10
-0.19
-0.19
0.10
0.55
1.00
1.29
1.38
1.26
0.99
0.65
0.29
0.01
-0.15
-0.13
0.08
0.44
0.85
1.18
1.30
1.15
0.76
0.26
-0.20
-0.45
-0.43
-0.19
0.15
0.46
0.67
0.77
0.83
0.93
1.18
1.59
2.12
2.68
3.09
3.20
2.93
2.35
1.66
1.10
0.86
0.98
1.33
1.67
1.79
1.60
1.12
0.46
-0.26
-0.98
-1.69
-2.41
-3.12
-3.73
-4.09
-4.08
-3.70
-3.06
-2.39
-1.89
-1.71
-1.81
-2.09
-2.43
-2.77
-3.14
-3.59
-4.10
-4.52
-4.66
-4.40
-3.79
-3.01
-2.35
-2.00
-2.00
-2.20
-2.37
-2.35
-2.06
-1.53
-0.77
0.26
1.61
3.31
5.20
6.94
8.11
8.38
7.66
6.14
4.24
2.43
1.04
0.16
-0.33
-0.65
-0.96
-1.26
-1.45
-1.37
-0.98
-0.40
0.10
0.27
-0.05
-0.77
-1.65
-2.34
-2.58
-2.33
-1.72
-1.00
-0.38
0.08
0.45
0.91
1.60
2.49
3.41
4.10
4.31
3.94
3.04
1.83
0.55
-0.56
-1.31
-1.57
-1.30
-0.54
0.56
1.75
2.73
3.25
3.25
2.80
2.14
1.48
0.99
0.67
0.49
0.38
0.31
0.31
0.44
0.74
1.17
1.68
2.17
2.52
2.63
2.45
1.98
1.30
0.58
-0.02
-0.39
-0.51
-0.48
-0.44
-0.50
-0.70
-0.95
-1.12
-1.09
-0.83
-0.40
0.01
0.23
0.14
-0.25
-0.81
-1.37
-1.77
-1.94
-1.92
-1.83
-1.73
-1.61
-1.36
-0.88
-0.13
0.78
1.61
2.12
2.16
1.76
1.10
0.44
-0.04
-0.27
-0.32
-0.33
-0.44
-0.70
-1.09
-1.51
-1.88
-2.14
-2.28
-2.32
-2.29
-2.20
-2.02
-1.73
-1.30
-0.78
-0.26
0.15
0.36
0.35
0.19
-0.02
-0.20
-0.31
-0.39
-0.46
-0.56
-0.65
-0.70
-0.68
-0.59
-0.51
-0.51
-0.63
-0.85
-1.11
-1.34
-1.47
-1.48
-1.39
-1.21
-1.01
-0.83
-0.67
-0.52
-0.34
-0.11
0.15
0.40
0.55
0.59
0.49
0.33
0.16
0.05
-0.02
-0.06
-0.09
-0.10
-0.09
-0.03
0.07
0.19
0.32
0.43
0.51
0.52
0.43
0.24
-0.01
-0.22
-0.32
-0.31
-0.20
-0.09
0.00
0.07
0.16
0.33
0.57
0.81
0.98
1.06
1.08
1.13
1.23
1.35
1.41
1.30
1.02
0.61
0.20
-0.10
-0.22
-0.17
-0.04
0.09
0.13
0.09
-0.01
-0.08
-0.12
-0.12
-0.16
-0.27
-0.46
-0.68
-0.86
-0.95
-0.93
-0.82
-0.64
-0.44
-0.26
-0.15
-0.17
-0.29
-0.47
-0.59
-0.58
-0.41
-0.14
0.12
0.27
0.34
0.40
0.56
0.85
1.21
1.50
1.60
1.47
1.18
0.89
0.76
0.86
1.15
1.50
1.73
1.73
1.46
1.03
0.55
0.18
0.00
0.02
0.21
0.47
0.73
0.92
0.99
0.90
0.63
0.22
-0.26
-0.71
-1.02
-1.14
-1.09
-0.95
-0.81
-0.74
-0.75
-0.79
-0.80
-0.74
-0.60
-0.42
-0.28
-0.21
-0.25
-0.37
-0.52
-0.66
-0.76
-0.79
-0.75
-0.61
-0.33
0.10
0.65
1.19
1.56
1.62
1.32
0.76
0.13
-0.32
-0.48
-0.33
0.03
0.44
0.81
1.09
1.27
1.35
1.30
1.12
0.82
0.47
0.15
-0.03
-0.02
0.17
0.50
0.90
1.30
1.63
1.87
2.00
2.01
1.96
1.89
1.85
1.84
1.82
1.69
1.36
0.76
-0.05
-0.97
-1.80
-2.37
-2.57
-2.45
-2.10
-1.72
-1.46
-1.37
-1.47
-1.67
-1.87
-1.95
-1.84
-1.53
-1.06
-0.52
-0.04
0.29
0.41
0.34
0.11
-0.20
-0.50
-0.71
-0.80
-0.73
-0.50
-0.13
0.32
0.77
1.10
1.24
1.13
0.82
0.42
0.05
-0.21
-0.35
-0.44
-0.53
-0.64
-0.69
-0.60
-0.34
0.07
0.50
0.80
0.85
0.64
0.24
-0.26
-0.77
-1.23
-1.65
-2.05
-2.43
-2.75
-2.99
-3.12
-3.19
-3.27
-3.38
-3.53
-3.59
-3.47
-3.13
-2.66
-2.21
-1.91
-1.79
-1.76
-1.64
-1.32
-0.76
-0.03
0.74
1.46
2.06
2.52
2.82
2.95
2.89
2.64
2.23
1.73
1.20
0.73
0.42
0.31
0.38
0.54
0.68
0.68
0.54
0.34
0.19
0.18
0.29
0.40
0.39
0.22
-0.10
-0.45
-0.72
-0.84
-0.85
-0.84
-0.92
-1.11
-1.39
-1.69
-1.92
-2.03
-2.03
-1.97
-1.88
-1.76
-1.58
-1.32
-0.97
-0.60
-0.26
-0.01
0.17
0.33
0.57
0.94
1.45
2.05
2.69
3.30
3.87
4.38
4.78
5.05
5.17
5.15
5.02
4.84
4.62
4.38
4.09
3.78
3.52
3.44
3.62
4.05
4.56
4.89
4.71
3.85
2.35
0.47
-1.38
-2.81
-3.59
-3.71
-3.34
-2.75
-2.14
-1.61
-1.16
-0.75
-0.35
-0.01
0.22
0.28
0.17
-0.10
-0.46
-0.84
-1.19
-1.45
-1.55
-1.50
-1.33
-1.15
-1.03
-1.01
-1.10
-1.21
-1.31
-1.39
-1.49
-1.65
-1.87
-2.08
-2.16
-2.01
-1.62
-1.11
-0.67
-0.46
-0.54
-0.83
-1.16
-1.37
-1.37
-1.20
-0.97
-0.80
-0.73
-0.71
-0.64
-0.43
-0.05
0.44
0.98
1.48
1.91
2.28
2.61
2.94
3.25
3.55
3.78
3.92
3.96
3.88
3.69
3.38
2.98
2.57
2.23
2.01
1.90
1.81
1.58
1.09
0.28
-0.78
-1.94
-2.99
-3.78
-4.28
-4.55
-4.71
-4.92
-5.28
-5.84
-6.51
-7.15
-7.56
-7.62
-7.32
-6.80
-6.27
-5.90
-5.76
-5.78
-5.82
-5.68
-5.27
-4.51
-3.46
-2.22
-1.00
-0.01
0.53
0.57
0.19
-0.33
-0.69
-0.67
-0.23
0.46
1.21
1.84
2.30
2.64
2.96
3.31
3.69
4.05
4.34
4.54
4.64
4.65
4.58
4.41
4.16
3.89
3.68
3.62
3.73
3.99
4.30
4.48
4.41
4.01
3.32
2.46
1.59
0.86
0.33
-0.01
-0.23
-0.38
-0.53
-0.71
-0.94
-1.26
-1.69
-2.22
-2.77
-3.22
-3.45
-3.36
-2.94
-2.27
-1.48
-0.69
0.00
0.56
0.98
1.29
1.48
1.58
1.61
1.64
1.78
2.11
2.66
3.41
4.29
5.20
6.09
6.90
7.56
7.97
8.00
7.57
6.65
5.32
3.74
2.08
0.49
-0.90
-2.01
-2.74
-3.07
-3.03
-2.73
-2.36
-2.08
-1.99
-2.08
-2.25
-2.42
-2.50
-2.48
-2.34
-2.12
-1.85
-1.60
-1.44
-1.43
-1.62
-1.94
-2.27
-2.47
-2.45
-2.24
-1.91
-1.59
-1.40
-1.35
-1.41
-1.52
-1.64
-1.76
-1.89
-2.01
-2.11
-2.11
-1.98
-1.70
-1.33
-0.91
-0.54
-0.27
-0.13
-0.08
-0.10
-0.13
-0.14
-0.12
-0.09
-0.08
-0.14
-0.25
-0.40
-0.55
-0.66
-0.71
-0.66
-0.50
-0.20
0.21
0.63
0.96
1.11
1.05
0.85
0.64
0.55
0.59
0.72
0.79
0.72
0.47
0.13
-0.18
-0.39
-0.46
-0.44
-0.41
-0.40
-0.42
-0.42
-0.38
-0.30
-0.23
-0.24
-0.35
-0.52
-0.65
-0.66
-0.51
-0.26
-0.02
0.09
0.03
-0.13
-0.30
-0.35
-0.20
0.18
0.74
1.44
2.18
2.85
3.33
3.54
3.42
3.05
2.56
2.12
1.83
1.71
1.68
1.62
1.46
1.16
0.78
0.42
0.17
0.09
0.15
0.32
0.50
0.59
0.52
0.27
-0.14
-0.62
-1.10
-1.50
-1.79
-1.95
-2.01
-1.96
-1.82
-1.61
-1.37
-1.18
-1.09
-1.11
-1.17
-1.19
-1.11
-0.95
-0.79
-0.74
-0.85
-1.07
-1.27
-1.35
-1.25
-1.00
-0.74
-0.57
-0.52
-0.55
-0.55
-0.49
-0.37
-0.28
-0.28
-0.37
-0.50
-0.57
-0.53
-0.38
-0.20
-0.02
0.12
0.28
0.46
0.65
0.79
0.78
0.62
0.35
0.08
-0.05
-0.00
0.18
0.38
0.44
0.29
-0.04
-0.42
-0.69
-0.77
-0.66
-0.44
-0.25
-0.16
-0.18
-0.25
-0.30
-0.32
-0.33
-0.37
-0.47
-0.61
-0.73
-0.80
-0.81
-0.82
-0.88
-1.01
-1.13
-1.17
-1.03
-0.73
-0.37
-0.09
0.03
0.00
-0.02
0.10
0.44
0.95
1.46
1.80
1.87
1.69
1.33
0.89
0.40
-0.10
-0.57
-0.92
-1.06
-0.93
-0.57
-0.10
0.30
0.51
0.45
0.16
-0.27
-0.70
-1.02
-1.16
-1.08
-0.80
-0.41
0.04
0.45
0.79
1.05
1.20
1.26
1.24
1.16
1.09
1.13
1.35
1.78
2.39
3.07
3.70
4.11
4.21
3.96
3.41
2.71
2.02
1.49
1.18
1.08
1.09
1.08
0.94
0.65
0.23
-0.26
-0.74
-1.18
-1.53
-1.78
-1.91
-1.91
-1.83
-1.70
-1.56
-1.45
-1.34
-1.23
-1.09
-0.94
-0.80
-0.70
-0.62
-0.53
-0.41
-0.26
-0.13
0.00
0.14
0.31
0.54
0.79
1.02
1.15
1.15
1.07
1.01
1.08
1.36
1.82
2.35
2.82
3.15
3.30
3.35
3.41
3.54
3.74
3.96
4.05
3.94
3.58
3.05
2.46
1.94
1.60
1.49
1.59
1.83
2.10
2.29
2.30
2.06
1.59
0.96
0.25
-0.46
-1.08
-1.55
-1.79
-1.75
-1.45
-0.98
-0.55
-0.35
-0.54
-1.10
-1.86
-2.60
-3.07
-3.17
-2.87
-2.29
-1.62
-1.04
-0.76
-0.90
-1.48
-2.38
-3.37
-4.16
-4.53
-4.38
-3.83
-3.08
-2.42
-2.06
-2.08
-2.45
-3.01
-3.57
-3.97
-4.09
-3.94
-3.60
-3.19
-2.80
-2.43
-2.04
-1.52
-0.84
-0.05
0.70
1.24
1.48
1.43
1.24
1.07
1.03
1.13
1.33
1.52
1.69
1.84
1.96
2.07
2.14
2.17
2.20
2.29
2.47
2.69
2.83
2.74
2.38
1.84
1.28
0.87
0.62
0.38
-0.04
-0.74
-1.61
-2.36
-2.70
-2.48
-1.82
-1.07
-0.58
-0.58
-1.06
-1.80
-2.53
-3.07
-3.40
-3.53
-3.52
-3.36
-3.01
-2.44
-1.72
-1.00
-0.42
-0.07
0.07
0.11
0.13
0.17
0.20
0.16
0.02
-0.16
-0.30
-0.33
-0.24
-0.08
0.06
0.14
0.15
0.14
0.14
0.16
0.18
0.17
0.14
0.14
0.22
0.38
0.57
0.68
0.63
0.43
0.17
0.00
0.02
0.21
0.47
0.63
0.58
0.32
-0.08
-0.53
-0.98
-1.41
-1.76
-1.99
-2.04
-1.92
-1.68
-1.43
-1.24
-1.11
-0.97
-0.74
-0.42
-0.11
0.07
0.04
-0.12
-0.30
-0.36
-0.29
-0.18
-0.13
-0.23
-0.44
-0.66
-0.74
-0.59
-0.19
0.39
1.05
1.63
2.00
2.09
1.92
1.58
1.19
0.80
0.44
0.05
-0.35
-0.73
-0.92
-0.83
-0.41
0.23
0.92
1.46
1.79
1.93
1.97
2.03
2.15
2.32
2.52
2.73
2.95
3.17
3.36
3.44
3.34
3.02
2.50
1.90
1.33
0.92
0.72
0.71
0.83
0.96
1.00
0.87
0.60
0.25
-0.11
-0.45
-0.75
-1.05
-1.34
-1.56
-1.65
-1.57
-1.40
-1.32
-1.53
-2.15
-3.16
-4.33
-5.38
-6.04
-6.27
-6.16
-5.97
-5.94
-6.15
-6.49
-6.68
-6.41
-5.53
-4.15
-2.69
-1.65
-1.45
-2.19
-3.58
-5.08
-6.10
-6.19
-5.20
-3.30
-0.89
1.49
3.29
4.03
3.50
1.76
-0.78
-3.48
-5.69
-6.91
-6.97
-6.00
-4.30
-2.19
0.09
2.40
4.61
6.55
7.99
8.76
8.86
8.46
7.86
7.34
7.04
6.91
6.77
6.46
5.93
5.28
4.67
4.25
4.04
3.98
3.94
3.79
3.47
3.02
2.49
1.96
1.47
1.03
0.62
0.22
-0.12
-0.27
-0.09
0.53
1.56
2.83
4.11
5.18
5.94
6.39
6.60
6.61
6.39
5.91
5.18
4.30
3.44
2.77
2.34
2.12
1.98
1.82
1.58
1.29
0.97
0.63
0.26
-0.14
-0.55
-0.91
-1.14
-1.21
-1.15
-1.07
-1.09
-1.31
-1.77
-2.42
-3.13
-3.80
-4.30
-4.59
-4.68
-4.62
-4.48
-4.32
-4.16
-4.01
-3.88
-3.78
-3.74
-3.77
-3.86
-3.98
-4.04
-3.97
-3.68
-3.14
-2.38
-1.51
-0.69
-0.04
0.37
0.57
0.64
0.66
0.70
0.77
0.83
0.86
0.87
0.86
0.86
0.86
0.85
0.81
0.72
0.56
0.34
0.12
-0.06
-0.14
-0.12
-0.02
0.07
0.08
-0.00
-0.15
-0.28
-0.32
-0.27
-0.18
-0.13
-0.15
-0.23
-0.31
-0.36
-0.39
-0.43
-0.50
-0.56
-0.56
-0.46
-0.29
-0.12
-0.02
-0.01
-0.05
-0.08
-0.04
0.05
0.15
0.23
0.31
0.40
0.54
0.70
0.82
0.82
0.68
0.44
0.15
-0.13
-0.39
-0.63
-0.85
-1.02
-1.09
-1.05
-0.94
-0.82
-0.74
-0.75
-0.81
-0.86
-0.85
-0.79
-0.75
-0.79
-0.92
-1.06
-1.08
-0.89
-0.49
-0.06
0.21
0.20
-0.10
-0.50
-0.78
-0.79
-0.54
-0.19
0.05
0.05
-0.17
-0.52
-0.82
-0.98
-0.93
-0.68
-0.20
0.56
1.66
3.06
4.65
6.17
7.34
7.87
7.61
6.55
4.89
2.93
1.01
-0.63
-1.83
-2.59
-3.00
-3.13
-3.05
-2.80
-2.45
-2.10
-1.88
-1.87
-2.07
-2.35
-2.55
-2.55
-2.35
-2.08
-1.93
-2.00
-2.24
-2.46
-2.45
-2.11
-1.52
-0.93
-0.60
-0.73
-1.27
-2.00
-2.65
-3.00
-2.99
-2.74
-2.40
-2.13
-1.97
-1.89
-1.79
-1.65
-1.45
-1.28
-1.19
-1.18
-1.20
-1.16
-0.94
-0.50
0.16
0.99
1.84
2.57
3.05
3.18
2.96
2.46
1.78
1.05
0.40
-0.09
-0.40
-0.53
-0.55
-0.59
-0.75
-1.11
-1.62
-2.14
-2.46
-2.46
-2.17
-1.74
-1.38
-1.23
-1.31
-1.53
-1.72
-1.82
-1.79
-1.68
-1.51
-1.24
-0.81
-0.20
0.51
1.14
1.52
1.56
1.30
0.92
0.62
0.53
0.68
1.00
1.43
1.92
2.46
3.02
3.53
3.89
3.99
3.82
3.45
3.03
2.68
2.47
2.37
2.33
2.28
2.18
2.05
1.90
1.79
1.74
1.80
1.96
2.15
2.26
2.20
1.94
1.52
1.08
0.75
0.62
0.66
0.76
0.84
0.87
0.85
0.84
0.83
0.75
0.55
0.17
-0.29
-0.71
-0.98
-1.07
-1.06
-1.03
-1.05
-1.05
-0.93
-0.62
-0.15
0.33
0.69
0.84
0.83
0.79
0.80
0.85
0.84
0.67
0.29
-0.20
-0.64
-0.88
-0.86
-0.62
-0.27
0.03
0.21
0.20
0.05
-0.20
-0.44
-0.63
-0.76
-0.89
-1.07
-1.33
-1.66
-1.97
-2.18
-2.23
-2.14
-1.92
-1.63
-1.31
-1.02
-0.77
-0.59
-0.47
-0.38
-0.28
-0.15
0.02
0.20
0.36
0.47
0.53
0.57
0.61
0.66
0.73
0.82
0.92
1.02
1.12
1.22
1.35
1.49
1.61
1.67
1.58
1.29
0.86
0.34
-0.13
-0.46
-0.63
-0.67
-0.62
-0.52
-0.37
-0.14
0.18
0.54
0.83
0.92
0.73
0.28
-0.31
-0.86
-1.21
-1.31
-1.20
-1.02
-0.92
-1.00
-1.25
-1.58
-1.83
-1.87
-1.66
-1.23
-0.72
-0.29
-0.07
-0.09
-0.28
-0.54
-0.76
-0.89
-0.94
-0.97
-1.01
-1.05
-1.09
-1.17
-1.34
-1.73
-2.40
-3.31
-4.34
-5.28
-5.99
-6.39
-6.50
-6.36
-5.99
-5.39
-4.62
-3.80
-3.15
-2.82
-2.84
-3.03
-3.09
-2.75
-1.89
-0.60
0.88
2.26
3.35
4.06
4.40
4.45
4.35
4.26
4.33
4.63
5.14
5.68
6.12
6.37
6.48
6.62
6.89
7.26
7.56
7.52
6.99
6.01
4.86
3.86
3.26
3.10
3.20
3.32
3.25
2.97
2.57
2.21
1.98
1.86
1.74
1.49
1.06
0.51
-0.02
-0.38
-0.48
-0.38
-0.19
-0.08
-0.12
-0.28
-0.47
-0.56
-0.52
-0.39
-0.23
-0.09
0.01
0.10
0.17
0.18
0.09
-0.13
-0.45
-0.75
-0.94
-0.99
-0.93
-0.86
-0.82
-0.80
-0.77
-0.67
-0.55
-0.47
-0.53
-0.76
-1.08
-1.35
-1.42
-1.24
-0.87
-0.44
-0.09
0.14
0.27
0.40
0.56
0.74
0.80
0.65
0.25
-0.31
-0.85
-1.16
-1.15
-0.81
-0.26
0.33
0.78
0.92
0.61
-0.23
-1.59
-3.23
-4.82
-5.98
-6.44
-6.17
-5.39
-4.38
-3.45
-2.76
-2.34
-2.16
-2.18
-2.35
-2.60
-2.82
-2.85
-2.56
-1.91
-0.98
0.07
1.02
1.70
2.01
1.98
1.75
1.52
1.46
1.62
1.95
2.27
2.44
2.34
2.01
1.56
1.15
0.89
0.80
0.79
0.76
0.63
0.40
0.17
0.04
0.10
0.33
0.64
0.91
1.06
1.07
0.96
0.77
0.51
0.20
-0.15
-0.48
-0.72
-0.80
-0.70
-0.46
-0.16
0.05
0.09
-0.06
-0.34
-0.62
-0.79
-0.77
-0.63
-0.48
-0.43
-0.52
-0.65
-0.64
-0.38
0.13
0.76
1.29
1.55
1.50
1.22
0.88
0.62
0.56
0.78
1.27
1.96
2.69
3.18
3.13
2.35
0.84
-1.11
-3.05
-4.52
-5.28
-5.36
-5.02
-4.56
-4.18
-3.88
-3.51
-2.87
-1.90
-0.69
0.52
1.47
2.04
2.22
2.19
2.13
2.19
2.37
2.57
2.68
2.62
2.44
2.25
2.14
2.12
2.09
1.89
1.44
0.74
-0.05
-0.73
-1.15
-1.25
-1.12
-0.93
-0.83
-0.93
-1.23
-1.62
-1.94
-2.02
-1.80
-1.31
-0.70
-0.15
0.21
0.32
0.24
0.02
-0.24
-0.50
-0.70
-0.79
-0.71
-0.49
-0.17
0.12
0.30
0.31
0.19
-0.00
-0.19
-0.33
-0.41
-0.44
-0.40
-0.31
-0.22
-0.17
-0.15
-0.08
0.16
0.64
1.28
1.91
2.29
2.30
1.99
1.59
1.36
1.45
1.83
2.32
2.71
2.90
2.87
2.65
2.28
1.77
1.18
0.59
0.13
-0.10
-0.11
-0.04
-0.09
-0.42
-1.02
-1.74
-2.34
-2.64
-2.56
-2.17
-1.61
-1.05
-0.61
-0.33
-0.22
-0.21
-0.24
-0.25
-0.23
-0.20
-0.22
-0.30
-0.44
-0.57
-0.62
-0.55
-0.39
-0.22
-0.10
-0.06
-0.08
-0.09
-0.06
0.01
0.07
0.06
-0.01
-0.11
-0.15
-0.08
0.11
0.36
0.61
0.80
0.96
1.08
1.18
1.19
1.06
0.73
0.29
-0.13
-0.33
-0.24
0.10
0.50
0.76
0.75
0.52
0.20
-0.01
-0.05
0.05
0.14
0.07
-0.20
-0.60
-0.99
-1.23
-1.24
-1.07
-0.80
-0.55
-0.37
-0.27
-0.18
-0.04
0.17
0.40
0.54
0.50
0.26
-0.14
-0.54
-0.79
-0.80
-0.58
-0.24
0.04
0.16
0.06
-0.21
-0.51
-0.75
-0.82
-0.73
-0.51
-0.26
-0.06
0.07
0.12
0.15
0.16
0.16
0.11
-0.03
-0.23
-0.41
-0.51
-0.49
-0.39
-0.30
-0.32
-0.47
-0.72
-0.95
-1.06
-0.97
-0.69
-0.27
0.15
0.44
0.52
0.37
0.11
-0.14
-0.26
-0.21
-0.02
0.21
0.43
0.63
0.82
0.98
1.07
1.01
0.75
0.35
-0.09
-0.41
-0.52
-0.41
-0.19
0.00
0.05
-0.08
-0.33
-0.60
-0.81
-0.92
-0.94
-0.92
-0.89
-0.87
-0.88
-0.91
-0.99
-1.13
-1.35
-1.64
-1.97
-2.29
-2.56
-2.74
-2.85
-2.93
-3.09
-3.42
-3.99
-4.74
-5.52
-6.14
-6.42
-6.31
-5.89
-5.37
-5.05
-5.13
-5.72
-6.71
-7.78
-8.44
-8.17
-6.63
-3.77
0.03
4.09
7.65
10.15
11.41
11.65
11.31
10.79
10.32
9.90
9.42
8.80
8.04
7.28
6.62
6.10
5.68
5.25
4.72
4.12
3.52
3.04
2.76
2.68
2.70
2.64
2.37
1.86
1.20
0.60
0.25
0.26
0.63
1.17
1.69
2.01
2.03
1.80
1.43
1.09
0.90
0.94
1.18
1.53
1.85
2.02
1.97
1.72
1.36
0.99
0.65
0.35
0.05
-0.23
-0.47
-0.61
-0.62
-0.57
-0.56
-0.68
-0.92
-1.17
-1.30
-1.24
-1.02
-0.80
-0.73
-0.89
-1.21
-1.53
-1.72
-1.73
-1.61
-1.50
-1.52
-1.68
-1.92
-2.11
-2.16
-2.10
-2.00
-1.98
-2.09
-2.29
-2.45
-2.43
-2.19
-1.81
-1.46
-1.28
-1.28
-1.35
-1.33
-1.13
-0.81
-0.52
-0.44
-0.62
-0.97
-1.31
-1.46
-1.36
-1.08
-0.77
-0.51
-0.32
-0.10
0.27
0.82
1.47
2.04
2.34
2.27
1.86
1.27
0.69
0.25
-0.02
-0.21
-0.39
-0.61
-0.82
-0.89
-0.73
-0.33
0.21
0.70
0.97
0.96
0.73
0.42
0.18
0.06
0.04
0.02
-0.08
-0.28
-0.52
-0.74
-0.90
-1.03
-1.17
-1.32
-1.43
-1.42
-1.22
-0.86
-0.44
-0.10
0.10
0.17
0.23
0.34
0.52
0.66
0.61
0.32
-0.13
-0.60
-0.89
-0.94
-0.81
-0.63
-0.50
-0.44
-0.40
-0.29
-0.07
0.24
0.54
0.77
0.86
0.86
0.82
0.81
0.84
0.88
0.82
0.59
0.15
-0.40
-0.92
-1.24
-1.26
-0.96
-0.48
-0.03
0.17
-0.04
-0.67
-1.57
-2.47
-3.08
-3.21
-2.83
-2.10
-1.28
-0.60
-0.18
0.00
0.01
-0.09
-0.30
-0.63
-1.10
-1.65
-2.17
-2.53
-2.69
-2.68
-2.62
-2.64
-2.82
-3.13
-3.45
-3.63
-3.55
-3.11
-2.27
-1.05
0.49
2.18
3.78
5.00
5.64
5.67
5.23
4.62
4.13
3.91
3.96
4.13
4.29
4.35
4.31
4.22
4.11
3.98
3.83
3.64
3.45
3.28
3.17
3.08
2.97
2.78
2.49
2.10
1.68
1.29
0.95
0.62
0.26
-0.17
-0.66
-1.15
-1.58
-1.91
-2.11
-2.24
-2.33
-2.42
-2.51
-2.58
-2.61
-2.57
-2.49
-2.41
-2.36
-2.35
-2.33
-2.21
-1.95
-1.58
-1.17
-0.83
-0.65
-0.61
-0.66
-0.70
-0.67
-0.55
-0.36
-0.11
0.20
0.56
0.91
1.18
1.31
1.33
1.29
1.29
1.39
1.57
1.74
1.79
1.67
1.44
1.14
0.86
0.63
0.42
0.21
0.01
-0.17
-0.28
-0.33
-0.37
-0.48
-0.71
-1.06
-1.45
-1.75
-1.84
-1.66
-1.25
-0.74
-0.32
-0.13
-0.22
-0.54
-0.97
-1.34
-1.55
-1.52
-1.29
-0.94
-0.55
-0.23
0.00
0.10
0.08
-0.02
-0.11
-0.14
-0.05
0.17
0.43
0.61
0.56
0.16
-0.56
-1.44
-2.25
-2.78
-2.98
-2.96
-2.99
-3.28
-3.90
-4.72
-5.49
-5.93
-5.95
-5.66
-5.38
-5.44
-6.08
-7.30
-8.86
-10.33
-11.32
-11.61
-11.28
-10.71
-10.44
-10.97
-12.60
-15.30
-18.58
-21.49
-22.76
-21.04
-15.45
-6.04
5.92
18.17
28.13
33.83
34.64
31.38
25.86
20.04
15.25
11.94
9.86
8.54
7.72
7.39
7.67
8.51
9.58
10.40
10.55
9.91
8.71
7.42
6.49
6.14
6.29
6.61
6.71
6.30
5.33
3.99
2.61
1.48
0.73
0.27
-0.12
-0.67
-1.48
-2.49
-3.51
-4.34
-4.82
-4.89
-4.57
-3.94
-3.13
-2.30
-1.60
-1.10
-0.80
-0.58
-0.35
-0.04
0.35
0.75
1.11
1.39
1.61
1.76
1.87
1.93
1.99
2.10
2.27
2.47
2.53
2.27
1.59
0.48
-0.85
-2.16
-3.19
-3.85
-4.13
-4.11
-3.87
-3.42
-2.77
-2.01
-1.33
-0.99
-1.25
-2.18
-3.54
-4.84
-5.52
-5.21
-3.94
-2.14
-0.53
0.25
-0.08
-1.37
-3.10
-4.69
-5.72
-6.09
-5.96
-5.60
-5.15
-4.64
-3.97
-3.02
-1.79
-0.39
0.96
2.08
2.83
3.20
3.28
3.18
3.00
2.76
2.46
2.09
1.70
1.39
1.25
1.33
1.59
1.90
2.13
2.24
2.28
2.36
2.57
2.91
3.27
3.48
3.43
3.12
2.64
2.16
1.82
1.65
1.62
1.62
1.53
1.31
0.95
0.51
0.08
-0.27
-0.51
-0.64
-0.73
-0.85
-1.11
-1.52
-2.07
-2.61
-2.97
-2.96
-2.52
-1.70
-0.66
0.29
0.84
0.72
-0.21
-1.84
-3.87
-5.87
-7.40
-8.23
-8.32
-7.81
-6.89
-5.72
-4.39
-2.92
-1.43
-0.10
0.85
1.26
1.17
0.80
0.49
0.54
1.10
2.11
3.34
4.49
5.31
5.66
5.55
5.09
4.47
3.85
3.38
3.10
2.97
2.88
2.72
2.43
2.06
1.69
1.42
1.29
1.22
1.14
0.96
0.69
0.39
0.15
0.01
-0.03
0.00
0.09
0.26
0.59
1.18
2.04
3.09
4.12
4.80
4.85
4.12
2.68
0.85
-0.91
-2.23
-2.92
-3.10
-3.07
-3.17
-3.60
-4.34
-5.18
-5.85
-6.17
-6.13
-5.83
-5.41
-4.92
-4.31
-3.48
-2.38
-1.09
0.18
1.17
1.71
1.79
1.53
1.14
0.82
0.64
0.60
0.61
0.61
0.56
0.49
0.43
0.43
0.46
0.51
0.57
0.64
0.76
0.97
1.27
1.61
1.88
2.01
2.00
1.96
2.08
2.53
3.37
4.51
5.71
6.70
7.20
7.03
6.10
4.49
2.43
0.32
-1.37
-2.31
-2.33
-1.61
-0.51
0.54
1.27
1.61
1.63
1.43
1.08
0.52
-0.24
-1.07
-1.68
-1.71
-0.94
0.56
2.42
4.09
5.11
5.34
4.98
4.52
4.44
5.01
6.15
7.52
8.69
9.28
9.09
8.12
6.49
4.39
2.10
-0.06
-1.77
-2.87
-3.34
-3.38
-3.26
-3.20
-3.24
-3.31
-3.26
-3.08
-2.89
-2.96
-3.48
-4.50
-5.81
-7.09
-8.04
-8.54
-8.71
-8.80
-9.05
-9.55
-10.22
-10.86
-11.28
-11.41
-11.35
-11.26
-11.31
-11.56
-11.92
-12.21
-12.29
-12.13
-11.84
-11.58
-11.45
-11.41
-11.31
-10.98
-10.36
-9.56
-8.74
-8.02
-7.33
-6.47
-5.23
-3.57
-1.68
0.12
1.67
3.04
4.56
6.52
8.92
11.36
13.22
13.99
13.58
12.36
10.97
9.92
9.38
9.13
8.77
8.04
6.93
5.71
4.76
4.35
4.52
5.07
5.69
6.07
6.02
5.55
4.84
4.14
3.66
3.47
3.46
3.47
3.33
3.02
2.62
2.25
1.98
1.77
1.51
1.12
0.62
0.17
-0.07
-0.00
0.29
0.60
0.70
0.49
0.04
-0.42
-0.69
-0.64
-0.30
0.22
0.77
1.27
1.70
2.09
2.50
2.93
3.36
3.74
4.01
4.14
4.15
4.14
4.24
4.62
5.38
6.48
7.76
8.95
9.80
10.12
9.85
9.04
7.84
6.47
5.09
3.86
2.80
1.91
1.11
0.36
-0.34
-0.95
-1.41
-1.71
-1.90
-2.08
-2.33
-2.71
-3.21
-3.77
-4.31
-4.73
-5.00
-5.10
-5.10
-5.10
-5.22
-5.52
-5.94
-6.36
-6.64
-6.70
-6.58
-6.40
-6.28
-6.24
-6.26
-6.30
-6.37
-6.49
-6.69
-6.89
-6.87
-6.36
-5.22
-3.54
-1.72
-0.27
0.41
0.20
-0.68
-1.81
-2.74
-3.22
-3.19
-2.79
-2.21
-1.62
-1.08
-0.62
-0.25
0.01
0.11
0.03
-0.23
-0.59
-0.94
-1.11
-1.00
-0.58
0.09
0.80
1.33
1.50
1.24
0.65
-0.05
-0.62
-0.92
-0.92
-0.74
-0.52
-0.36
-0.24
-0.10
0.16
0.54
0.96
1.24
1.25
0.95
0.44
-0.05
-0.31
-0.20
0.28
0.99
1.73
2.31
2.61
2.61
2.36
1.99
1.62
1.34
1.22
1.23
1.33
1.44
1.52
1.57
1.61
1.64
1.62
1.49
1.20
0.76
0.27
-0.12
-0.26
-0.10
0.29
0.72
1.00
1.00
0.69
0.19
-0.34
-0.76
-0.97
-0.96
-0.77
-0.48
-0.17
0.10
0.27
0.31
0.23
0.05
-0.16
-0.36
-0.52
-0.66
-0.81
-0.99
-1.16
-1.27
-1.29
-1.21
-1.10
-1.02
-1.01
-1.04
-1.02
-0.89
-0.63
-0.33
-0.11
-0.07
-0.20
-0.41
-0.55
-0.53
-0.38
-0.16
0.01
0.10
0.13
0.16
0.26
0.42
0.58
0.68
0.71
0.69
0.69
0.79
0.99
1.26
1.49
1.61
1.54
1.30
0.95
0.58
0.29
0.13
0.12
0.19
0.29
0.35
0.32
0.22
0.04
-0.18
-0.40
-0.61
-0.73
-0.75
-0.66
-0.49
-0.31
-0.19
-0.17
-0.22
-0.26
-0.25
-0.15
-0.04
0.00
-0.08
-0.25
-0.43
-0.52
-0.50
-0.43
-0.39
-0.44
-0.55
-0.65
-0.66
-0.54
-0.33
-0.09
0.12
0.29
0.41
0.50
0.56
0.59
0.58
0.55
0.49
0.38
0.17
-0.16
-0.57
-0.98
-1.28
-1.37
-1.24
-0.94
-0.56
-0.20
0.06
0.20
0.23
0.19
0.12
0.08
0.05
0.00
-0.11
-0.31
-0.56
-0.76
-0.83
-0.73
-0.48
-0.16
0.13
0.33
0.45
0.47
0.39
0.21
-0.05
-0.34
-0.56
-0.65
-0.59
-0.47
-0.40
-0.43
-0.55
-0.67
-0.67
-0.54
-0.33
-0.13
-0.03
-0.03
-0.05
-0.02
0.10
0.29
0.47
0.57
0.58
0.55
0.56
0.69
0.92
1.18
1.36
1.37
1.17
0.80
0.36
-0.05
-0.34
-0.46
-0.40
-0.17
0.19
0.60
0.98
1.20
1.19
0.93
0.49
-0.00
-0.38
-0.52
-0.40
-0.10
0.22
0.40
0.33
0.02
-0.42
-0.83
-1.05
-1.01
-0.74
-0.31
0.16
0.60
0.93
1.12
1.18
1.10
0.91
0.63
0.30
-0.04
-0.34
-0.58
-0.70
-0.70
-0.60
-0.45
-0.34
-0.31
-0.35
-0.42
-0.44
-0.37
-0.19
0.06
0.34
0.62
0.86
1.05
1.13
1.06
0.86
0.56
0.26
0.04
-0.06
-0.09
-0.11
-0.18
-0.29
-0.40
-0.46
-0.47
-0.47
-0.50
-0.55
-0.58
-0.54
-0.41
-0.24
-0.11
-0.09
-0.18
-0.34
-0.48
-0.54
-0.50
-0.38
-0.24
-0.11
0.00
0.09
0.15
0.18
0.19
0.19
0.23
0.36
0.57
0.82
1.05
1.14
1.05
0.79
0.44
0.12
-0.06
-0.05
0.09
0.26
0.36
0.33
0.18
-0.02
-0.17
-0.19
-0.09
0.06
0.12
-0.03
-0.42
-0.96
-1.47
-1.74
-1.69
-1.34
-0.83
-0.30
0.14
0.46
0.67
0.79
0.79
0.67
0.44
0.17
-0.07
-0.25
-0.39
-0.59
-0.86
-1.16
-1.35
-1.33
-1.07
-0.63
-0.17
0.17
0.33
0.32
0.22
0.10
-0.04
-0.17
-0.31
-0.40
-0.40
-0.27
-0.05
0.18
0.33
0.36
0.25
0.09
-0.05
-0.11
-0.11
-0.10
-0.19
-0.40
-0.69
-0.94
-0.99
-0.73
-0.16
0.63
1.44
2.06
2.34
2.23
1.77
1.08
0.31
-0.36
-0.83
-0.99
-0.81
-0.34
0.34
1.09
1.76
2.19
2.29
2.01
1.40
0.62
-0.17
-0.80
-1.19
-1.34
-1.31
-1.23
-1.17
-1.19
-1.28
-1.40
-1.48
-1.44
-1.21
-0.79
-0.23
0.35
0.80
1.02
0.95
0.67
0.27
-0.08
-0.24
-0.12
0.26
0.80
1.32
1.65
1.71
1.53
1.25
1.00
0.86
0.85
0.87
0.86
0.80
0.71
0.62
0.53
0.41
0.23
0.01
-0.18
-0.29
-0.29
-0.24
-0.20
-0.24
-0.34
-0.44
-0.47
-0.43
-0.35
-0.28
-0.23
-0.15
0.01
0.28
0.61
0.87
0.98
0.88
0.64
0.36
0.18
0.15
0.25
0.42
0.56
0.62
0.56
0.45
0.34
0.31
0.37
0.47
0.50
0.39
0.13
-0.17
-0.40
-0.44
-0.31
-0.07
0.15
0.24
0.19
0.05
-0.14
-0.35
-0.65
-1.18
-2.04
-3.25
-4.70
-6.19
-7.48
-8.36
-8.79
-8.79
-8.49
-8.03
-7.44
-6.76
-5.98
-5.16
-4.43
-3.94
-3.80
-3.99
-4.33
-4.56
-4.45
-3.92
-3.07
-2.09
-1.18
-0.42
0.27
1.08
2.15
3.51
4.99
6.36
7.40
8.05
8.41
8.63
8.79
8.85
8.64
7.99
6.86
5.45
4.07
3.04
2.51
2.40
2.47
2.45
2.22
1.79
1.28
0.77
0.32
-0.09
-0.44
-0.69
-0.77
-0.64
-0.35
-0.04
0.13
0.08
-0.20
-0.63
-1.10
-1.57
-1.97
-2.29
-2.49
-2.51
-2.33
-1.95
-1.47
-1.00
-0.66
-0.54
-0.60
-0.77
-0.90
-0.89
-0.68
-0.35
-0.01
0.21
0.28
0.24
0.20
0.25
0.45
0.75
1.09
1.40
1.67
1.91
2.14
2.34
2.48
2.52
2.46
2.33
2.16
2.00
1.89
1.86
1.92
2.07
2.24
2.35
2.33
2.15
1.85
1.50
1.19
0.96
0.80
0.67
0.56
0.46
0.40
0.33
0.21
-0.02
-0.37
-0.78
-1.18
-1.49
-1.69
-1.83
-1.95
-2.12
-2.32
-2.51
-2.62
-2.62
-2.49
-2.24
-1.93
-1.59
-1.28
-1.07
-0.98
-1.06
-1.26
-1.55
-1.84
-2.04
-2.06
-1.90
-1.56
-1.15
-0.77
-0.51
-0.41
-0.44
-0.52
-0.53
-0.40
-0.14
0.17
0.44
0.56
0.48
0.27
0.03
-0.11
-0.06
0.16
0.44
0.66
0.69
0.55
0.31
0.09
-0.03
-0.02
0.06
0.14
0.17
0.13
0.07
0.03
0.06
0.14
0.22
0.22
0.11
-0.09
-0.29
-0.38
-0.29
-0.05
0.22
0.35
0.27
0.03
-0.22
-0.32
-0.20
0.07
0.32
0.40
0.28
0.06
-0.10
-0.10
0.05
0.20
0.20
-0.00
-0.33
-0.60
-0.66
-0.46
-0.12
0.17
0.22
0.00
-0.37
-0.72
-0.88
-0.80
-0.53
-0.19
0.10
0.29
0.39
0.45
0.53
0.66
0.84
1.03
1.19
1.27
1.26
1.20
1.13
1.11
1.12
1.14
1.08
0.94
0.74
0.55
0.44
0.43
0.51
0.60
0.64
0.59
0.50
0.39
0.33
0.35
0.42
0.48
0.49
0.41
0.29
0.18
0.14
0.17
0.25
0.32
0.35
0.37
0.43
0.58
0.83
1.09
1.23
1.17
0.89
0.44
-0.04
-0.42
-0.62
-0.59
-0.35
0.05
0.56
1.13
1.68
2.10
2.27
2.12
1.64
0.97
0.34
-0.01
0.09
0.64
1.47
2.31
2.92
3.14
2.97
2.54
2.05
1.72
1.70
2.01
2.58
3.24
3.80
4.09
4.03
3.62
2.91
1.98
0.90
-0.28
-1.52
-2.80
-4.09
-5.31
-6.36
-7.14
-7.55
-7.57
-7.23
-6.61
-5.79
-4.85
-3.90
-3.04
-2.42
-2.09
-2.07
-2.22
-2.39
-2.45
-2.35
-2.17
-2.00
-1.86
-1.70
-1.42
-0.98
-0.40
0.20
0.71
1.06
1.25
1.34
1.40
1.44
1.49
1.53
1.55
1.53
1.43
1.23
0.88
0.40
-0.18
-0.74
-1.12
-1.21
-0.96
-0.44
0.20
0.79
1.19
1.36
1.32
1.13
0.84
0.47
0.07
-0.25
-0.37
-0.17
0.38
1.17
2.01
2.63
2.87
2.68
2.16
1.50
0.94
0.66
0.68
0.95
1.28
1.53
1.58
1.45
1.20
0.95
0.75
0.61
0.52
0.43
0.31
0.11
-0.21
-0.62
-1.07
-1.41
-1.52
-1.34
-0.94
-0.46
-0.07
0.12
0.14
0.09
0.05
0.07
0.11
0.08
-0.03
-0.18
-0.28
-0.21
0.03
0.37
0.63
0.66
0.40
-0.07
-0.55
-0.83
-0.79
-0.45
0.03
0.45
0.68
0.67
0.49
0.21
-0.12
-0.47
-0.83
-1.14
-1.34
-1.36
-1.19
-0.84
-0.36
0.18
0.73
1.17
1.39
1.32
0.94
0.38
-0.21
-0.64
-0.84
-0.83
-0.70
-0.53
-0.39
-0.26
-0.14
-0.04
0.02
-0.00
-0.11
-0.25
-0.36
-0.38
-0.30
-0.17
-0.08
-0.10
-0.26
-0.53
-0.80
-1.01
-1.12
-1.18
-1.26
-1.41
-1.57
-1.68
-1.65
-1.45
-1.10
-0.62
0.02
0.81
1.70
2.48
2.94
2.86
2.27
1.37
0.52
-0.01
-0.13
0.05
0.31
0.49
0.57
0.66
0.84
1.14
1.44
1.60
1.52
1.22
0.82
0.48
0.29
0.24
0.23
0.14
-0.07
-0.36
-0.57
-0.59
-0.42
-0.17
-0.04
-0.19
-0.62
-1.20
-1.70
-1.94
-1.86
-1.53
-1.07
-0.59
-0.14
0.25
0.50
0.50
0.17
-0.48
-1.29
-1.99
-2.38
-2.41
-2.20
-1.99
-1.97
-2.20
-2.57
-2.87
-2.93
-2.66
-2.04
-1.15
-0.11
0.95
1.90
2.65
3.14
3.36
3.32
3.07
2.70
2.31
2.01
1.90
2.01
2.27
2.53
2.58
2.27
1.56
0.55
-0.53
-1.43
-1.91
-1.82
-1.21
-0.24
0.78
1.55
1.84
1.61
0.94
0.06
-0.83
-1.57
-2.05
-2.27
-2.21
-1.91
-1.44
-0.90
-0.42
-0.09
0.06
0.10
0.11
0.16
0.29
0.50
0.76
1.03
1.28
1.50
1.65
1.72
1.67
1.54
1.36
1.19
1.06
0.98
0.90
0.79
0.60
0.35
0.07
-0.20
-0.45
-0.68
-0.88
-1.02
-1.09
-1.08
-1.03
-1.07
-1.31
-1.80
-2.43
-3.01
-3.28
-3.12
-2.56
-1.79
-1.08
-0.60
-0.42
-0.51
-0.82
-1.32
-2.01
-2.84
-3.63
-4.12
-4.05
-3.23
-1.70
0.32
2.48
4.38
5.70
6.28
6.13
5.41
4.42
3.46
2.73
2.33
2.22
2.27
2.34
2.36
2.30
2.19
2.05
1.87
1.62
1.25
0.76
0.19
-0.39
-0.90
-1.25
-1.37
-1.27
-1.00
-0.67
-0.41
-0.30
-0.37
-0.58
-0.88
-1.24
-1.66
-2.11
-2.54
-2.84
-2.88
-2.60
-2.07
-1.45
-0.97
-0.77
-0.83
-1.02
-1.12
-0.97
-0.53
0.09
0.72
1.17
1.36
1.30
1.06
0.74
0.43
0.19
0.06
0.09
0.32
0.73
1.21
1.60
1.70
1.41
0.79
0.01
-0.68
-1.13
-1.30
-1.26
-1.12
-0.94
-0.75
-0.58
-0.48
-0.56
-0.91
-1.49
-2.11
-2.50
-2.41
-1.73
-0.60
0.66
1.69
2.21
2.16
1.68
1.01
0.41
-0.02
-0.26
-0.43
-0.64
-0.92
-1.21
-1.38
-1.33
-1.00
-0.50
-0.02
0.25
0.21
-0.03
-0.26
-0.22
0.21
0.99
1.85
2.51
2.77
2.60
2.16
1.71
1.41
1.34
1.43
1.57
1.65
1.59
1.35
0.94
0.40
-0.18
-0.67
-0.92
-0.87
-0.55
-0.08
0.36
0.60
0.56
0.26
-0.25
-0.82
-1.32
-1.61
-1.60
-1.27
-0.70
-0.06
0.43
0.60
0.41
-0.08
-0.67
-1.16
-1.43
-1.46
-1.30
-1.03
-0.71
-0.36
-0.03
0.25
0.40
0.34
0.07
-0.32
-0.69
-0.89
-0.87
-0.68
-0.43
-0.23
-0.11
-0.05
0.01
0.11
0.24
0.36
0.42
0.43
0.41
0.39
0.41
0.46
0.51
0.53
0.50
0.43
0.32
0.20
0.06
-0.04
-0.09
-0.03
0.17
0.52
0.95
1.37
1.66
1.70
1.47
1.01
0.46
-0.03
-0.34
-0.43
-0.33
-0.13
0.06
0.17
0.19
0.13
0.04
-0.06
-0.15
-0.26
-0.39
-0.58
-0.81
-1.06
-1.27
-1.36
-1.28
-1.03
-0.67
-0.32
-0.13
-0.16
-0.39
-0.70
-0.96
-1.03
-0.90
-0.63
-0.35
-0.14
-0.04
-0.03
-0.04
-0.04
-0.00
0.06
0.15
0.25
0.41
0.64
0.89
1.10
1.16
1.04
0.80
0.58
0.48
0.53
0.63
0.61
0.36
-0.12
-0.71
-1.23
-1.55
-1.65
-1.61
-1.49
-1.33
-1.09
-0.74
-0.32
0.07
0.26
0.17
-0.20
-0.76
-1.32
-1.73
-1.86
-1.69
-1.26
-0.70
-0.19
0.14
0.23
0.12
-0.06
-0.18
-0.16
-0.00
0.22
0.44
0.63
0.85
1.14
1.48
1.76
1.84
1.64
1.23
0.78
0.49
0.44
0.60
0.84
1.07
1.22
1.32
1.36
1.34
1.19
0.91
0.58
0.36
0.38
0.73
1.36
2.12
2.85
3.39
3.67
3.65
3.34
2.82
2.24
1.77
1.57
1.74
2.25
2.93
3.58
4.01
4.14
4.04
3.88
3.84
3.98
4.23
4.38
4.23
3.68
2.78
1.72
0.70
-0.13
-0.77
-1.30
-1.78
-2.23
-2.58
-2.78
-2.79
-2.70
-2.60
-2.59
-2.72
-2.93
-3.17
-3.34
-3.40
-3.33
-3.19
-3.03
-2.91
-2.86
-2.87
-2.92
-3.00
-3.11
-3.26
-3.46
-3.67
-3.83
-3.87
-3.76
-3.51
-3.22
-3.00
-2.93
-2.99
-3.11
-3.20
-3.20
-3.15
-3.15
-3.25
-3.47
-3.70
-3.82
-3.74
-3.49
-3.23
-3.12
-3.25
-3.56
-3.88
-3.99
-3.76
-3.19
-2.38
-1.45
-0.52
0.34
1.14
1.87
2.55
3.19
3.81
4.39
4.90
5.28
5.48
5.44
5.16
4.69
4.11
3.54
3.05
2.68
2.41
2.17
1.89
1.56
1.21
0.95
0.87
1.02
1.30
1.57
1.69
1.59
1.28
0.91
0.61
0.48
0.53
0.75
1.04
1.30
1.42
1.28
0.88
0.28
-0.35
-0.82
-1.00
-0.91
-0.67
-0.43
-0.28
-0.21
-0.16
-0.10
-0.03
-0.01
-0.08
-0.26
-0.48
-0.68
-0.78
-0.79
-0.73
-0.65
-0.61
-0.63
-0.69
-0.77
-0.85
-0.91
-0.95
-1.00
-1.07
-1.16
-1.21
-1.19
-1.08
-0.88
-0.61
-0.28
0.10
0.52
0.91
1.16
1.18
0.92
0.47
-0.01
-0.34
-0.42
-0.26
0.02
0.31
0.54
0.72
0.90
1.07
1.21
1.24
1.12
0.88
0.58
0.32
0.15
0.05
0.00
-0.02
0.01
0.12
0.30
0.51
0.64
0.61
0.43
0.17
-0.06
-0.17
-0.14
-0.03
0.11
0.24
0.36
0.48
0.58
0.59
0.45
0.13
-0.33
-0.83
-1.24
-1.47
-1.52
-1.47
-1.40
-1.42
-1.55
-1.75
-1.93
-1.97
-1.84
-1.54
-1.16
-0.78
-0.46
-0.22
-0.05
0.05
0.09
0.07
-0.01
-0.11
-0.19
-0.25
-0.30
-0.36
-0.42
-0.41
-0.28
-0.03
0.28
0.55
0.71
0.79
0.91
1.20
1.66
2.19
2.55
2.60
2.31
1.82
1.33
0.99
0.82
0.77
0.75
0.71
0.68
0.69
0.76
0.84
0.84
0.71
0.47
0.18
-0.04
-0.12
-0.06
0.07
0.18
0.19
0.11
-0.03
-0.17
-0.25
-0.23
-0.12
0.05
0.24
0.42
0.56
0.66
0.71
0.73
0.73
0.73
0.75
0.79
0.85
0.90
0.92
0.84
0.63
0.31
-0.06
-0.36
-0.49
-0.42
-0.24
-0.10
-0.15
-0.42
-0.80
-1.12
-1.21
-1.00
-0.59
-0.18
0.06
0.03
-0.23
-0.61
-0.98
-1.30
-1.57
-1.81
-1.99
-2.04
-1.86
-1.43
-0.79
-0.11
0.46
0.79
0.89
0.84
0.76
0.75
0.83
0.96
1.06
1.09
1.00
0.78
0.48
0.10
-0.28
-0.63
-0.86
-0.95
-0.89
-0.71
-0.50
-0.33
-0.25
-0.26
-0.33
-0.42
-0.49
-0.52
-0.54
-0.55
-0.53
-0.46
-0.35
-0.21
-0.14
-0.23
-0.51
-0.94
-1.35
-1.59
-1.56
-1.31
-1.01
-0.88
-1.04
-1.48
-2.01
-2.43
-2.56
-2.34
-1.80
-1.02
-0.08
0.96
2.01
2.89
3.42
3.41
2.87
1.96
1.02
0.40
0.27
0.60
1.15
1.64
1.88
1.83
1.57
1.23
0.93
0.72
0.62
0.65
0.83
1.15
1.55
1.88
2.05
1.95
1.59
1.03
0.39
-0.18
-0.52
-0.53
-0.20
0.33
0.88
1.24
1.30
1.11
0.78
0.47
0.26
0.17
0.09
-0.05
-0.30
-0.65
-1.03
-1.37
-1.59
-1.65
-1.56
-1.38
-1.20
-1.11
-1.13
-1.24
-1.37
-1.47
-1.49
-1.47
-1.43
-1.36
-1.24
-1.04
-0.73
-0.36
-0.01
0.24
0.35
0.34
0.27
0.19
0.10
0.01
-0.08
-0.17
-0.19
-0.10
0.09
0.34
0.56
0.69
0.70
0.64
0.52
0.39
0.28
0.20
0.19
0.27
0.42
0.56
0.60
0.47
0.19
-0.17
-0.46
-0.62
-0.62
-0.55
-0.49
-0.45
-0.39
-0.23
0.08
0.53
0.99
1.37
1.60
1.69
1.75
1.89
2.22
2.78
3.56
4.50
5.46
6.31
6.88
7.06
6.82
6.24
5.52
4.87
4.47
4.36
4.46
4.61
4.67
4.53
4.21
3.77
3.24
2.61
1.82
0.81
-0.44
-1.80
-3.12
-4.19
-4.93
-5.32
-5.47
-5.50
-5.49
-5.48
-5.44
-5.34
-5.19
-4.99
-4.77
-4.54
-4.29
-4.04
-3.84
-3.73
-3.74
-3.84
-3.99
-4.11
-4.17
-4.15
-4.12
-4.13
-4.23
-4.41
-4.62
-4.76
-4.76
-4.59
-4.26
-3.85
-3.39
-2.93
-2.45
-1.92
-1.34
-0.75
-0.22
0.17
0.42
0.57
0.71
0.88
1.07
1.25
1.37
1.42
1.42
1.42
1.43
1.43
1.40
1.31
1.19
1.05
0.92
0.83
0.77
0.78
0.85
0.98
1.17
1.35
1.48
1.55
1.60
1.69
1.84
2.02
2.13
2.08
1.81
1.39
0.94
0.62
0.52
0.67
1.00
1.43
1.88
2.29
2.62
2.84
2.92
2.86
2.70
2.46
2.19
1.90
1.57
1.22
0.88
0.65
0.58
0.69
0.88
1.00
0.93
0.59
0.01
-0.75
-1.57
-2.38
-3.10
-3.64
-3.87
-3.75
-3.30
-2.64
-2.02
-1.64
-1.63
-1.96
-2.50
-3.08
-3.54
-3.83
-3.97
-4.00
-3.99
-4.00
-4.09
-4.34
-4.81
-5.54
-6.51
-7.61
-8.72
-9.73
-10.57
-11.24
-11.81
-12.31
-12.77
-13.16
-13.44
-13.54
-13.39
-12.90
-11.99
-10.60
-8.77
-6.59
-4.24
-1.90
0.23
2.03
3.45
4.54
5.43
6.32
7.40
8.79
10.48
12.30
13.96
15.13
15.58
15.27
14.34
13.04
11.61
10.20
8.87
7.60
6.37
5.22
4.18
3.29
2.56
1.94
1.41
0.94
0.55
0.27
0.08
-0.06
-0.23
-0.46
-0.74
-1.01
-1.14
-1.04
-0.62
0.07
0.94
1.81
2.51
2.94
3.10
3.07
2.96
2.86
2.83
2.89
3.04
3.31
3.70
4.18
4.66
5.04
5.20
5.10
4.77
4.28
3.74
3.21
2.73
2.32
1.95
1.59
1.17
0.62
-0.11
-1.01
-2.00
-2.90
-3.55
-3.86
-3.84
-3.59
-3.27
-2.96
-2.70
-2.38
-1.90
-1.17
-0.16
1.05
2.30
3.39
4.14
4.45
4.31
3.82
3.16
2.50
1.97
1.61
1.39
1.23
1.07
0.89
0.71
0.55
0.45
0.42
0.41
0.40
0.38
0.35
0.35
0.36
0.35
0.27
0.11
-0.07
-0.20
-0.17
0.04
0.35
0.65
0.83
0.82
0.66
0.41
0.14
-0.09
-0.21
-0.13
0.22
0.89
1.81
2.82
3.69
4.23
4.33
4.01
3.44
2.80
2.25
1.85
1.58
1.31
0.91
0.31
-0.46
-1.27
-1.99
-2.50
-2.79
-2.89
-2.87
-2.77
-2.59
-2.36
-2.13
-1.99
-2.03
-2.28
-2.63
-2.96
-3.14
-3.15
-3.08
-3.05
-3.11
-3.21
-3.23
-3.06
-2.70
-2.24
-1.82
-1.49
-1.25
-1.07
-0.91
-0.81
-0.79
-0.84
-0.89
-0.81
-0.52
-0.04
0.51
0.96
1.17
1.08
0.75
0.26
-0.24
-0.65
-0.89
-0.93
-0.81
-0.60
-0.45
-0.43
-0.58
-0.86
-1.15
-1.34
-1.35
-1.17
-0.87
-0.56
-0.35
-0.27
-0.30
-0.32
-0.22
0.09
0.56
1.06
1.40
1.42
1.05
0.39
-0.36
-0.93
-1.15
-0.98
-0.55
-0.05
0.33
0.47
0.38
0.17
-0.05
-0.21
-0.27
-0.26
-0.22
-0.19
-0.22
-0.30
-0.39
-0.42
-0.33
-0.11
0.17
0.44
0.57
0.55
0.39
0.17
-0.04
-0.18
-0.23
-0.19
-0.08
0.08
0.28
0.46
0.58
0.59
0.50
0.36
0.23
0.17
0.16
0.18
0.13
-0.03
-0.32
-0.67
-1.02
-1.27
-1.37
-1.30
-1.06
-0.69
-0.26
0.15
0.43
0.50
0.37
0.10
-0.19
-0.41
-0.51
-0.48
-0.37
-0.22
-0.07
0.06
0.12
0.09
-0.02
-0.18
-0.34
-0.42
-0.39
-0.27
-0.09
0.08
0.21
0.29
0.30
0.23
0.08
-0.13
-0.32
-0.46
-0.50
-0.45
-0.32
-0.15
0.01
0.15
0.21
0.18
0.05
-0.17
-0.38
-0.51
-0.49
-0.35
-0.18
-0.11
-0.22
-0.47
-0.76
-0.95
-0.96
-0.80
-0.54
-0.28
-0.08
0.06
0.14
0.21
0.27
0.33
0.41
0.51
0.63
0.77
0.88
0.91
0.81
0.59
0.31
0.08
0.01
0.10
0.32
0.55
0.66
0.60
0.41
0.18
0.01
-0.05
-0.06
-0.11
-0.30
-0.64
-1.10
-1.53
-1.81
-1.81
-1.51
-0.97
-0.33
0.25
0.66
0.85
0.86
0.75
0.59
0.40
0.17
-0.10
-0.41
-0.71
-0.92
-1.01
-1.00
-0.94
-0.94
-1.09
-1.44
-1.96
-2.57
-3.15
-3.58
-3.80
-3.84
-3.79
-3.81
-4.04
-4.58
-5.42
-6.46
-7.49
-8.33
-8.89
-9.18
-9.34
-9.57
-10.06
-10.91
-12.13
-13.58
-15.02
-16.10
-16.39
-15.49
-13.18
-9.60
-5.23
-0.82
2.93
5.57
7.04
7.57
7.47
6.96
6.13
5.06
3.97
3.25
3.33
4.40
6.29
8.43
10.12
10.87
10.59
9.60
8.45
7.58
7.14
7.01
6.86
6.48
5.84
5.13
4.59
4.36
4.45
4.72
5.05
5.40
5.85
6.46
7.25
8.06
8.65
8.80
8.39
7.53
6.47
5.48
4.74
4.27
3.96
3.64
3.24
2.76
2.30
1.92
1.62
1.33
1.01
0.65
0.36
0.26
0.45
0.88
1.40
1.78
1.85
1.58
1.07
0.50
0.06
-0.13
-0.07
0.13
0.32
0.38
0.28
0.05
-0.18
-0.30
-0.24
0.00
0.35
0.72
1.01
1.18
1.22
1.14
0.96
0.73
0.48
0.30
0.25
0.38
0.70
1.15
1.60
1.93
2.04
1.90
1.54
1.01
0.43
-0.11
-0.53
-0.76
-0.77
-0.54
-0.09
0.52
1.20
1.80
2.16
2.17
1.76
1.01
0.05
-0.97
-1.93
-2.82
-3.70
-4.61
-5.54
-6.38
-6.98
-7.25
-7.22
-7.04
-6.87
-6.88
-7.13
-7.61
-8.25
-8.97
-9.66
-10.22
-10.57
-10.68
-10.59
-10.41
-10.26
-10.19
-10.20
-10.20
-10.03
-9.60
-8.88
-7.94
-6.91
-5.99
-5.31
-4.86
-4.49
-3.91
-2.81
-1.03
1.38
4.13
6.85
9.26
11.24
12.86
14.23
15.38
16.27
16.77
16.83
16.46
15.76
14.83
13.75
12.52
11.17
9.77
8.41
7.18
6.06
4.97
3.79
2.41
0.87
-0.72
-2.21
-3.45
-4.36
-4.94
-5.22
-5.22
-5.01
-4.64
-4.16
-3.65
-3.19
-2.81
-2.49
-2.19
-1.82
-1.30
-0.59
0.27
1.15
1.90
2.38
2.58
2.59
2.63
2.91
3.60
4.71
6.14
7.65
8.94
9.71
9.70
8.80
7.13
5.01
2.91
1.23
0.18
-0.33
-0.57
-0.82
-1.23
-1.72
-2.04
-1.96
-1.37
-0.34
0.93
2.14
3.07
3.55
3.53
3.11
2.46
1.84
1.46
1.41
1.58
1.69
1.43
0.62
-0.71
-2.27
-3.74
-4.90
-5.79
-6.65
-7.71
-9.04
-10.42
-11.47
-11.82
-11.33
-10.12
-8.49
-6.76
-5.14
-3.75
-2.66
-1.95
-1.68
-1.83
-2.24
-2.70
-3.02
-3.14
-3.18
-3.32
-3.66
-4.16
-4.65
-4.93
-4.83
-4.30
-3.43
-2.34
-1.22
-0.23
0.50
0.85
0.85
0.62
0.36
0.29
0.55
1.12
1.86
2.58
3.14
3.51
3.79
4.07
4.44
4.83
5.13
5.24
5.14
4.89
4.64
4.44
4.30
4.12
3.82
3.39
2.90
2.42
2.04
1.76
1.54
1.32
1.04
0.68
0.30
-0.05
-0.29
-0.36
-0.28
-0.12
-0.01
-0.02
-0.19
-0.43
-0.62
-0.67
-0.55
-0.31
-0.07
0.10
0.17
0.20
0.26
0.42
0.72
1.13
1.57
1.96
2.21
2.26
2.09
1.75
1.31
0.87
0.51
0.29
0.20
0.20
0.20
0.12
-0.10
-0.42
-0.74
-0.94
-0.91
-0.66
-0.30
0.01
0.15
0.10
-0.07
-0.23
-0.29
-0.25
-0.15
-0.10
-0.19
-0.45
-0.85
-1.29
-1.68
-1.91
-1.97
-1.89
-1.78
-1.71
-1.74
-1.84
-1.92
-1.90
-1.75
-1.50
-1.22
-1.01
-0.89
-0.84
-0.78
-0.64
-0.39
-0.04
0.29
0.51
0.54
0.38
0.09
-0.23
-0.48
-0.63
-0.69
-0.73
-0.77
-0.82
-0.84
-0.76
-0.57
-0.33
-0.10
0.02
0.00
-0.15
-0.39
-0.64
-0.84
-0.97
-1.01
-0.97
-0.87
-0.73
-0.58
-0.43
-0.31
-0.21
-0.13
-0.05
0.06
0.29
0.67
1.20
1.78
2.25
2.44
2.25
1.72
1.03
0.41
0.04
-0.04
0.08
0.26
0.33
0.26
0.07
-0.14
-0.31
-0.39
-0.39
-0.37
-0.37
-0.43
-0.56
-0.74
-0.91
-1.01
-1.01
-0.88
-0.65
-0.35
-0.05
0.20
0.35
0.40
0.34
0.20
0.01
-0.20
-0.38
-0.50
-0.54
-0.50
-0.37
-0.18
0.02
0.20
0.33
0.40
0.46
0.54
0.65
0.78
0.86
0.86
0.76
0.62
0.47
0.34
0.22
0.06
-0.17
-0.46
-0.76
-0.99
-1.08
-0.99
-0.75
-0.40
-0.01
0.37
0.69
0.94
1.13
1.21
1.16
0.94
0.53
-0.02
-0.58
-1.00
-1.18
-1.12
-0.89
-0.62
-0.41
-0.30
-0.28
-0.33
-0.43
-0.61
-0.84
-1.10
-1.30
-1.38
-1.27
-1.01
-0.69
-0.44
-0.36
-0.44
-0.58
-0.64
-0.53
-0.25
0.10
0.39
0.56
0.60
0.58
0.58
0.65
0.76
0.87
0.94
0.95
0.89
0.74
0.53
0.27
0.02
-0.15
-0.19
-0.07
0.16
0.44
0.68
0.81
0.79
0.62
0.39
0.20
0.16
0.29
0.54
0.74
0.77
0.55
0.14
-0.29
-0.58
-0.64
-0.50
-0.28
-0.13
-0.13
-0.28
-0.49
-0.64
-0.65
-0.55
-0.41
-0.32
-0.34
-0.42
-0.50
-0.45
-0.26
0.03
0.32
0.50
0.55
0.47
0.30
0.09
-0.15
-0.37
-0.54
-0.61
-0.54
-0.34
-0.07
0.21
0.39
0.41
0.23
-0.12
-0.56
-0.98
-1.27
-1.34
-1.21
-0.95
-0.67
-0.42
-0.25
-0.12
-0.01
0.11
0.22
0.30
0.37
0.43
0.49
0.54
0.57
0.59
0.62
0.70
0.85
1.05
1.21
1.28
1.23
1.09
0.92
0.78
0.67
0.55
0.37
0.11
-0.20
-0.50
-0.72
-0.84
-0.89
-0.89
-0.82
-0.68
-0.45
-0.16
0.09
0.23
0.21
0.08
-0.05
-0.07
0.04
0.22
0.33
0.26
-0.00
-0.38
-0.72
-0.90
-0.86
-0.67
-0.46
-0.36
-0.43
-0.63
-0.84
-0.89
-0.68
-0.21
0.40
0.98
1.38
1.52
1.45
1.28
1.13
1.02
0.90
0.68
0.36
-0.00
-0.26
-0.30
-0.13
0.14
0.35
0.39
0.24
0.01
-0.17
-0.22
-0.16
-0.06
-0.04
-0.12
-0.32
-0.56
-0.77
-0.86
-0.81
-0.68
-0.57
-0.58
-0.75
-0.98
-1.16
-1.14
-0.90
-0.55
-0.26
-0.13
-0.18
-0.30
-0.32
-0.18
0.08
0.34
0.46
0.41
0.24
0.10
0.08
0.21
0.41
0.55
0.57
0.49
0.43
0.51
0.76
1.12
1.42
1.51
1.35
1.02
0.68
0.47
0.44
0.53
0.60
0.58
0.43
0.21
-0.04
-0.25
-0.43
-0.59
-0.73
-0.83
-0.83
-0.68
-0.38
0.02
0.40
0.67
0.73
0.54
0.15
-0.36
-0.87
-1.25
-1.40
-1.28
-0.92
-0.44
0.01
0.27
0.25
-0.02
-0.45
-0.89
-1.22
-1.37
-1.32
-1.12
-0.80
-0.42
-0.03
0.30
0.51
0.58
0.53
0.46
0.43
0.49
0.62
0.73
0.77
0.70
0.59
0.50
0.46
0.49
0.54
0.61
0.71
0.83
0.97
1.03
0.95
0.67
0.24
-0.22
-0.56
-0.67
-0.55
-0.32
-0.10
0.03
0.05
0.01
-0.04
-0.08
-0.12
-0.17
-0.25
-0.34
-0.38
-0.32
-0.14
0.11
0.37
0.53
0.52
0.34
0.06
-0.22
-0.44
-0.57
-0.63
-0.65
-0.60
-0.45
-0.15
0.29
0.75
1.06
1.10
0.84
0.36
-0.17
-0.59
-0.83
-0.89
-0.83
-0.71
-0.58
-0.45
-0.29
-0.13
0.01
0.09
0.09
0.01
-0.06
-0.06
0.09
0.38
0.76
1.07
1.22
1.14
0.86
0.47
0.08
-0.22
-0.40
-0.46
-0.43
-0.34
-0.22
-0.12
-0.05
-0.05
-0.11
-0.19
-0.25
-0.23
-0.15
-0.02
0.07
0.09
0.05
-0.00
0.01
0.10
0.25
0.36
0.33
0.14
-0.16
-0.44
-0.61
-0.65
-0.64
-0.68
-0.79
-0.91
-0.94
-0.78
-0.42
0.04
0.42
0.59
0.52
0.31
0.08
-0.04
-0.02
0.09
0.21
0.26
0.22
0.12
0.04
0.03
0.09
0.18
0.25
0.24
0.17
0.07
-0.00
-0.02
0.01
0.07
0.13
0.17
0.19
0.16
0.07
-0.09
-0.30
-0.48
-0.58
-0.55
-0.41
-0.23
-0.10
-0.09
-0.22
-0.42
-0.58
-0.60
-0.44
-0.12
0.23
0.51
0.63
0.60
0.49
0.40
0.41
0.52
0.68
0.85
0.99
1.06
1.03
0.86
0.54
0.11
-0.33
-0.65
-0.77
-0.70
-0.53
-0.38
-0.32
-0.31
-0.27
-0.12
0.17
0.50
0.76
0.85
0.76
0.54
0.30
0.12
0.02
-0.04
-0.09
-0.15
-0.20
-0.19
-0.07
0.15
0.41
0.61
0.68
0.61
0.46
0.32
0.26
0.28
0.32
0.28
0.11
-0.15
-0.41
-0.53
-0.48
-0.30
-0.11
0.00
-0.03
-0.16
-0.33
-0.48
-0.58
-0.66
-0.70
-0.69
-0.58
-0.36
-0.06
0.25
0.47
0.56
0.51
0.33
0.05
-0.31
-0.72
-1.10
-1.33
-1.31
-0.97
-0.40
0.24
0.75
1.02
1.04
0.91
0.73
0.58
0.44
0.27
0.03
-0.25
-0.50
-0.66
-0.72
-0.71
-0.66
-0.58
-0.45
-0.26
-0.00
0.25
0.42
0.48
0.42
0.28
0.12
-0.03
-0.12
-0.14
-0.10
-0.00
0.13
0.27
0.36
0.37
0.28
0.11
-0.09
-0.24
-0.28
-0.19
-0.01
0.19
0.33
0.34
0.22
0.01
-0.21
-0.39
-0.54
-0.66
-0.75
-0.76
-0.64
-0.37
-0.02
0.28
0.42
0.33
0.09
-0.16
-0.26
-0.12
0.19
0.55
0.80
0.87
0.76
0.53
0.25
-0.05
-0.35
-0.65
-0.87
-0.93
-0.76
-0.37
0.14
0.62
0.94
1.04
0.96
0.77
0.57
0.39
0.22
0.04
-0.13
-0.27
-0.33
-0.33
-0.30
-0.33
-0.43
-0.55
-0.62
-0.58
-0.44
-0.28
-0.18
-0.19
-0.28
-0.35
-0.30
-0.09
0.23
0.56
0.79
0.84
0.73
0.53
0.32
0.20
0.19
0.25
0.32
0.34
0.28
0.20
0.14
0.16
0.25
0.36
0.44
0.48
0.49
0.52
0.59
0.68
0.74
0.75
0.70
0.62
0.56
0.54
0.59
0.70
0.87
1.07
1.32
1.57
1.78
1.87
1.82
1.64
1.41
1.22
1.15
1.22
1.37
1.56
1.75
1.94
2.16
2.41
2.68
2.90
3.00
2.97
2.85
2.73
2.67
2.71
2.81
2.97
3.16
3.39
3.66
3.92
4.12
4.19
4.12
4.04
4.11
4.48
5.15
5.95
6.57
6.71
6.17
4.95
3.20
1.22
-0.73
-2.45
-3.85
-4.95
-5.83
-6.60
-7.38
-8.21
-9.14
-10.11
-11.06
-11.91
-12.58
-13.03
-13.31
-13.47
-13.58
-13.71
-13.85
-14.01
-14.18
-14.35
-14.47
-14.46
-14.21
-13.61
-12.65
-11.45
-10.17
-8.97
-7.90
-6.84
-5.57
-3.92
-1.86
0.48
2.87
5.10
7.01
8.54
9.63
10.20
10.20
9.64
8.66
7.57
6.70
6.30
6.46
7.00
7.63
8.06
8.07
7.60
6.73
5.61
4.41
3.32
2.49
2.02
1.99
2.38
3.06
3.87
4.60
5.08
5.26
5.20
5.06
5.02
5.16
5.44
5.71
5.78
5.52
4.98
4.31
3.67
3.13
2.63
2.05
1.29
0.39
-0.50
-1.20
-1.60
-1.77
-1.84
-1.98
-2.23
-2.52
-2.73
-2.75
-2.58
-2.28
-1.95
-1.67
-1.46
-1.29
-1.12
-0.93
-0.72
-0.47
-0.18
0.16
0.49
0.73
0.82
0.71
0.47
0.21
0.04
0.05
0.17
0.31
0.34
0.23
0.03
-0.17
-0.29
-0.30
-0.28
-0.31
-0.44
-0.63
-0.82
-0.93
-0.91
-0.78
-0.60
-0.41
-0.27
-0.20
-0.22
-0.33
-0.52
-0.78
-1.06
-1.29
-1.38
-1.29
-1.03
-0.71
-0.46
-0.41
-0.64
-1.13
-1.76
-2.39
-2.91
-3.26
-3.48
-3.61
-3.68
-3.67
-3.54
-3.30
-3.01
-2.78
-2.74
-2.94
-3.34
-3.84
-4.35
-4.82
-5.24
-5.66
-6.09
-6.53
-6.94
-7.25
-7.35
-7.17
-6.68
-5.93
-5.08
-4.27
-3.57
-2.86
-1.91
-0.52
1.34
3.47
5.49
7.06
8.02
8.46
8.60
8.67
8.73
8.77
8.73
8.66
8.75
9.14
9.79
10.41
10.54
9.79
8.06
5.68
3.22
1.28
0.18
-0.16
-0.12
-0.12
-0.48
-1.21
-2.15
-3.07
-3.80
-4.30
-4.60
-4.74
-4.71
-4.48
-4.02
-3.33
-2.52
-1.70
-1.03
-0.56
-0.26
0.03
0.52
1.38
2.62
4.07
5.40
6.30
6.53
6.09
5.20
4.16
3.25
2.60
2.16
1.77
1.31
0.73
0.14
-0.31
-0.51
-0.48
-0.33
-0.24
-0.27
-0.41
-0.54
-0.56
-0.47
-0.35
-0.33
-0.50
-0.83
-1.22
-1.52
-1.62
-1.50
-1.23
-0.90
-0.62
-0.45
-0.44
-0.57
-0.80
-1.06
-1.23
-1.23
-1.08
-0.82
-0.60
-0.50
-0.52
-0.62
-0.68
-0.65
-0.51
-0.35
-0.25
-0.26
-0.41
-0.64
-0.91
-1.14
-1.27
-1.23
-1.02
-0.66
-0.27
0.00
0.07
-0.06
-0.29
-0.44
-0.37
-0.05
0.41
0.84
1.08
1.04
0.79
0.43
0.10
-0.09
-0.14
-0.06
0.06
0.16
0.17
0.06
-0.14
-0.37
-0.56
-0.64
-0.59
-0.46
-0.35
-0.36
-0.48
-0.67
-0.79
-0.77
-0.59
-0.29
-0.02
0.14
0.17
0.10
-0.00
-0.10
-0.18
-0.27
-0.38
-0.46
-0.46
-0.33
-0.06
0.27
0.57
0.74
0.72
0.52
0.21
-0.09
-0.28
-0.31
-0.19
0.01
0.18
0.27
0.25
0.15
0.04
-0.00
0.04
0.19
0.39
0.60
0.75
0.78
0.65
0.37
0.00
-0.33
-0.53
-0.56
-0.43
-0.25
-0.14
-0.16
-0.31
-0.53
-0.71
-0.80
-0.77
-0.65
-0.50
-0.34
-0.24
-0.20
-0.25
-0.38
-0.55
-0.68
-0.71
-0.59
-0.36
-0.10
0.09
0.17
0.15
0.11
0.14
0.30
0.56
0.87
1.14
1.31
1.34
1.22
1.00
0.73
0.47
0.26
0.11
-0.02
-0.18
-0.41
-0.68
-0.88
-0.90
-0.66
-0.19
0.35
0.74
0.82
0.56
0.06
-0.46
-0.79
-0.85
-0.67
-0.40
-0.20
-0.14
-0.23
-0.35
-0.42
-0.38
-0.26
-0.13
-0.08
-0.15
-0.31
-0.46
-0.52
-0.44
-0.25
-0.02
0.18
0.29
0.32
0.30
0.25
0.17
0.08
-0.02
-0.11
-0.15
-0.13
-0.03
0.12
0.28
0.44
0.57
0.69
0.78
0.84
0.85
0.80
0.68
0.46
0.15
-0.22
-0.57
-0.79
-0.81
-0.62
-0.27
0.11
0.39
0.50
0.45
0.32
0.18
0.08
0.00
-0.08
-0.24
-0.50
-0.82
-1.14
-1.40
-1.53
-1.49
-1.29
-0.95
-0.53
-0.05
0.41
0.82
1.13
1.27
1.23
1.01
0.69
0.38
0.16
0.07
0.07
0.10
0.11
0.10
0.11
0.23
0.46
0.77
1.06
1.21
1.15
0.83
0.32
-0.27
-0.82
-1.21
-1.35
-1.26
-0.96
-0.55
-0.13
0.25
0.52
0.69
0.75
0.71
0.58
0.37
0.12
-0.13
-0.32
-0.46
-0.55
-0.66
-0.82
-1.00
-1.12
-1.06
-0.75
-0.25
0.30
0.70
0.80
0.59
0.18
-0.23
-0.48
-0.47
-0.24
0.07
0.36
0.56
0.69
0.79
0.90
1.00
1.02
0.91
0.68
0.40
0.17
0.07
0.11
0.23
0.33
0.32
0.18
-0.02
-0.20
-0.30
-0.29
-0.24
-0.21
-0.24
-0.34
-0.43
-0.45
-0.33
-0.10
0.17
0.37
0.46
0.43
0.37
0.34
0.34
0.36
0.35
0.27
0.15
0.04
-0.03
-0.08
-0.16
-0.33
-0.59
-0.88
-1.09
-1.12
-0.97
-0.68
-0.37
-0.11
0.06
0.19
0.27
0.31
0.27
0.10
-0.17
-0.49
-0.76
-0.92
-0.95
-0.85
-0.64
-0.35
-0.04
0.21
0.34
0.27
0.02
-0.32
-0.63
-0.79
-0.82
-0.82
-0.93
-1.23
-1.66
-2.11
-2.42
-2.54
-2.53
-2.50
-2.57
-2.75
-2.96
-3.06
-2.98
-2.72
-2.39
-2.12
-2.00
-2.03
-2.17
-2.31
-2.38
-2.35
-2.25
-2.09
-1.91
-1.69
-1.44
-1.13
-0.74
-0.31
0.16
0.65
1.18
1.78
2.45
3.16
3.84
4.39
4.72
4.80
4.63
4.27
3.82
3.37
3.03
2.87
2.89
3.06
3.31
3.51
3.58
3.45
3.14
2.71
2.23
1.82
1.57
1.57
1.83
2.25
2.68
2.92
2.85
2.45
1.85
1.20
0.63
0.17
-0.25
-0.66
-1.07
-1.34
-1.38
-1.13
-0.66
-0.16
0.21
0.34
0.25
0.05
-0.14
-0.23
-0.16
0.05
0.36
0.74
1.09
1.36
1.46
1.37
1.08
0.67
0.24
-0.15
-0.41
-0.55
-0.57
-0.52
-0.47
-0.48
-0.62
-0.87
-1.16
-1.34
-1.28
-0.94
-0.42
0.05
0.21
-0.05
-0.66
-1.38
-1.94
-2.14
-1.97
-1.55
-1.08
-0.71
-0.53
-0.54
-0.66
-0.81
-0.89
-0.86
-0.69
-0.47
-0.28
-0.20
-0.27
-0.43
-0.62
-0.75
-0.81
-0.82
-0.83
-0.87
-0.92
-0.96
-0.95
-0.84
-0.62
-0.28
0.14
0.58
0.97
1.18
1.15
0.82
0.28
-0.36
-0.97
-1.41
-1.61
-1.57
-1.33
-1.00
-0.67
-0.42
-0.28
-0.22
-0.19
-0.16
-0.08
0.04
0.19
0.35
0.49
0.58
0.61
0.57
0.49
0.43
0.44
0.54
0.67
0.81
0.90
0.98
1.07
1.19
1.32
1.36
1.24
0.93
0.47
-0.01
-0.39
-0.56
-0.51
-0.28
0.02
0.32
0.56
0.72
0.82
0.87
0.89
0.87
0.78
0.60
0.36
0.05
-0.28
-0.66
-1.06
-1.50
-1.90
-2.21
-2.34
-2.28
-2.07
-1.80
-1.55
-1.36
-1.18
-0.97
-0.68
-0.36
-0.08
0.05
-0.02
-0.26
-0.61
-0.92
-1.09
-1.04
-0.77
-0.34
0.14
0.57
0.86
0.99
1.00
0.95
0.91
0.88
0.83
0.72
0.50
0.19
-0.15
-0.45
-0.66
-0.75
-0.70
-0.53
-0.24
0.15
0.59
1.03
1.38
1.58
1.60
1.46
1.23
1.00
0.81
0.71
0.66
0.65
0.65
0.65
0.63
0.59
0.52
0.43
0.37
0.38
0.47
0.60
0.68
0.62
0.39
0.04
-0.29
-0.49
-0.53
-0.47
-0.38
-0.32
-0.30
-0.23
-0.07
0.19
0.51
0.80
1.01
1.11
1.12
1.07
1.00
0.95
0.91
0.87
0.81
0.70
0.52
0.28
0.04
-0.16
-0.26
-0.27
-0.22
-0.16
-0.15
-0.22
-0.35
-0.50
-0.61
-0.61
-0.50
-0.29
-0.07
0.05
0.01
-0.19
-0.45
-0.66
-0.74
-0.69
-0.59
-0.54
-0.58
-0.66
-0.70
-0.62
-0.43
-0.21
-0.10
-0.13
-0.28
-0.45
-0.53
-0.47
-0.31
-0.15
-0.04
0.00
0.01
0.02
0.06
0.13
0.21
0.27
0.31
0.30
0.20
-0.05
-0.43
-0.87
-1.23
-1.38
-1.23
-0.81
-0.25
0.27
0.58
0.62
0.43
0.10
-0.22
-0.46
-0.58
-0.61
-0.59
-0.55
-0.53
-0.51
-0.49
-0.43
-0.34
-0.23
-0.13
-0.05
-0.01
-0.00
-0.02
-0.04
-0.04
-0.04
-0.05
-0.06
-0.08
-0.09
-0.10
-0.09
-0.06
0.00
0.12
0.28
0.45
0.56
0.54
0.35
0.06
-0.19
-0.26
-0.07
0.33
0.80
1.14
1.24
1.09
0.77
0.39
0.08
-0.10
-0.15
-0.09
0.05
0.22
0.39
0.53
0.61
0.65
0.68
0.71
0.74
0.76
0.68
0.46
0.12
-0.26
-0.52
-0.55
-0.30
0.14
0.60
0.91
0.95
0.75
0.41
0.09
-0.09
-0.14
-0.11
-0.13
-0.28
-0.54
-0.83
-1.04
-1.10
-0.99
-0.80
-0.63
-0.53
-0.50
-0.46
-0.38
-0.25
-0.15
-0.14
-0.28
-0.51
-0.71
-0.76
-0.61
-0.27
0.15
0.53
0.80
0.96
1.03
1.06
1.07
1.05
0.96
0.80
0.60
0.38
0.21
0.11
0.04
-0.02
-0.11
-0.24
-0.40
-0.55
-0.61
-0.56
-0.41
-0.20
-0.03
0.05
0.03
-0.06
-0.13
-0.13
-0.03
0.13
0.29
0.43
0.50
0.52
0.51
0.49
0.45
0.37
0.22
-0.03
-0.38
-0.75
-1.04
-1.12
-0.97
-0.65
-0.32
-0.14
-0.15
-0.28
-0.36
-0.22
0.15
0.62
0.98
1.09
0.89
0.51
0.10
-0.21
-0.37
-0.42
-0.43
-0.42
-0.42
-0.42
-0.42
-0.42
-0.41
-0.36
-0.24
-0.06
0.12
0.21
0.16
-0.03
-0.28
-0.45
-0.43
-0.21
0.13
0.43
0.57
0.48
0.22
-0.10
-0.34
-0.43
-0.40
-0.30
-0.20
-0.14
-0.15
-0.18
-0.23
-0.27
-0.26
-0.19
-0.03
0.20
0.44
0.61
0.66
0.59
0.45
0.34
0.32
0.40
0.57
0.75
0.88
0.92
0.82
0.58
0.26
-0.09
-0.37
-0.55
-0.60
-0.57
-0.50
-0.40
-0.27
-0.12
0.05
0.15
0.14
-0.02
-0.29
-0.57
-0.76
-0.80
-0.68
-0.44
-0.16
0.11
0.34
0.51
0.62
0.68
0.73
0.80
0.88
0.92
0.83
0.56
0.16
-0.26
-0.55
-0.64
-0.54
-0.40
-0.36
-0.51
-0.76
-0.97
-0.95
-0.67
-0.21
0.26
0.56
0.62
0.48
0.27
0.09
0.03
0.06
0.13
0.15
0.06
-0.11
-0.31
-0.46
-0.50
-0.42
-0.27
-0.11
-0.01
0.02
-0.01
-0.05
-0.05
0.02
0.11
0.23
0.33
0.44
0.55
0.68
0.79
0.82
0.75
0.61
0.49
0.49
0.67
0.98
1.27
1.36
1.11
0.53
-0.23
-0.92
-1.35
-1.46
-1.30
-1.07
-0.92
-0.91
-0.98
-1.01
-0.89
-0.57
-0.09
0.42
0.83
1.03
1.01
0.76
0.36
-0.14
-0.63
-1.03
-1.26
-1.29
-1.17
-0.97
-0.76
-0.61
-0.48
-0.35
-0.17
0.07
0.33
0.53
0.59
0.47
0.20
-0.16
-0.50
-0.72
-0.76
-0.62
-0.41
-0.24
-0.19
-0.28
-0.45
-0.62
-0.71
-0.68
-0.51
-0.25
0.07
0.39
0.65
0.78
0.77
0.64
0.45
0.30
0.22
0.20
0.18
0.12
0.01
-0.10
-0.15
-0.10
0.06
0.28
0.52
0.70
0.79
0.77
0.66
0.52
0.45
0.50
0.67
0.88
1.01
1.01
0.89
0.72
0.62
0.66
0.81
1.00
1.10
1.05
0.84
0.52
0.18
-0.16
-0.48
-0.83
-1.18
-1.47
-1.61
-1.50
-1.09
-0.50
0.10
0.47
0.47
0.11
-0.44
-0.92
-1.16
-1.08
-0.75
-0.34
0.03
0.29
0.48
0.66
0.89
1.13
1.31
1.32
1.13
0.78
0.40
0.12
0.04
0.12
0.27
0.38
0.40
0.38
0.42
0.58
0.83
1.03
1.04
0.80
0.40
0.03
-0.12
-0.01
0.28
0.57
0.68
0.57
0.31
0.03
-0.16
-0.25
-0.28
-0.34
-0.49
-0.73
-1.01
-1.25
-1.37
-1.31
-1.05
-0.62
-0.13
0.30
0.54
0.53
0.30
-0.03
-0.30
-0.40
-0.30
-0.05
0.24
0.46
0.53
0.44
0.20
-0.15
-0.53
-0.85
-1.02
-0.96
-0.69
-0.30
0.04
0.17
0.02
-0.40
-0.96
-1.49
-1.85
-1.94
-1.74
-1.30
-0.70
-0.07
0.44
0.74
0.78
0.60
0.27
-0.08
-0.34
-0.45
-0.39
-0.19
0.09
0.34
0.48
0.47
0.33
0.09
-0.18
-0.45
-0.72
-0.95
-1.08
-1.03
-0.71
-0.15
0.52
1.12
1.48
1.52
1.27
0.86
0.39
-0.04
-0.39
-0.66
-0.85
-0.93
-0.91
-0.76
-0.50
-0.15
0.24
0.58
0.77
0.74
0.49
0.08
-0.35
-0.65
-0.74
-0.61
-0.33
0.01
0.32
0.54
0.67
0.70
0.59
0.36
0.00
-0.39
-0.69
-0.80
-0.65
-0.28
0.17
0.56
0.73
0.67
0.42
0.10
-0.15
-0.25
-0.15
0.11
0.48
0.82
1.04
1.04
0.81
0.44
0.07
-0.17
-0.24
-0.16
-0.03
0.08
0.14
0.16
0.19
0.21
0.18
0.08
-0.06
-0.16
-0.18
-0.10
-0.00
-0.01
-0.20
-0.53
-0.84
-0.99
-0.87
-0.52
-0.07
0.30
0.49
0.47
0.30
0.11
-0.02
-0.07
-0.06
-0.04
-0.04
-0.09
-0.16
-0.27
-0.40
-0.55
-0.69
-0.79
-0.83
-0.81
-0.74
-0.65
-0.55
-0.41
-0.22
0.04
0.36
0.71
1.00
1.19
1.20
1.05
0.75
0.38
0.05
-0.16
-0.23
-0.19
-0.11
-0.08
-0.11
-0.20
-0.31
-0.41
-0.48
-0.51
-0.50
-0.42
-0.27
-0.04
0.19
0.35
0.39
0.31
0.17
0.04
-0.02
-0.03
-0.00
0.00
-0.01
-0.01
0.07
0.26
0.58
0.93
1.19
1.20
0.90
0.36
-0.25
-0.69
-0.78
-0.52
-0.01
0.50
0.79
0.78
0.50
0.14
-0.13
-0.19
-0.03
0.24
0.49
0.60
0.53
0.31
0.03
-0.24
-0.41
-0.46
-0.40
-0.27
-0.13
-0.01
0.08
0.14
0.20
0.27
0.34
0.41
0.46
0.46
0.39
0.24
0.02
-0.26
-0.53
-0.74
-0.83
-0.77
-0.59
-0.36
-0.15
-0.01
0.06
0.11
0.14
0.18
0.20
0.16
0.08
0.01
0.02
0.12
0.28
0.40
0.41
0.29
0.11
-0.01
0.04
0.29
0.66
1.01
1.20
1.18
0.96
0.64
0.32
0.07
-0.07
-0.10
-0.10
-0.13
-0.26
-0.49
-0.75
-0.89
-0.83
-0.56
-0.21
0.04
0.02
-0.27
-0.72
-1.13
-1.33
-1.25
-0.96
-0.60
-0.30
-0.10
0.03
0.13
0.27
0.43
0.60
0.74
0.81
0.81
0.73
0.61
0.46
0.33
0.22
0.13
0.04
-0.08
-0.26
-0.49
-0.72
-0.90
-0.93
-0.78
-0.50
-0.16
0.13
0.28
0.26
0.08
-0.18
-0.42
-0.54
-0.50
-0.29
0.03
0.37
0.62
0.69
0.53
0.19
-0.26
-0.68
-0.97
-1.08
-1.03
-0.88
-0.72
-0.57
-0.43
-0.32
-0.22
-0.14
-0.12
-0.12
-0.13
-0.10
-0.04
0.06
0.16
0.26
0.42
0.68
1.06
1.52
1.92
2.12
2.06
1.76
1.34
0.96
0.73
0.64
0.60
0.49
0.27
-0.01
-0.20
-0.20
0.00
0.31
0.58
0.66
0.52
0.21
-0.17
-0.50
-0.74
-0.88
-0.93
-0.93
-0.89
-0.83
-0.76
-0.73
-0.75
-0.86
-1.03
-1.19
-1.26
-1.21
-1.03
-0.76
-0.48
-0.25
-0.10
0.01
0.10
0.19
0.28
0.37
0.46
0.52
0.53
0.42
0.18
-0.14
-0.43
-0.55
-0.39
0.01
0.52
0.92
1.04
0.85
0.44
0.02
-0.25
-0.29
-0.17
0.01
0.13
0.14
0.06
-0.05
-0.15
-0.23
-0.33
-0.46
-0.61
-0.69
-0.64
-0.44
-0.16
0.09
0.20
0.15
0.04
0.02
0.21
0.61
1.08
1.40
1.41
1.06
0.46
-0.18
-0.62
-0.75
-0.57
-0.21
0.17
0.45
0.58
0.59
0.51
0.34
0.11
-0.19
-0.53
-0.84
-1.06
-1.16
-1.15
-1.05
-0.89
-0.67
-0.41
-0.12
0.14
0.32
0.38
0.36
0.32
0.30
0.33
0.38
0.43
0.45
0.43
0.39
0.32
0.24
0.16
0.10
0.12
0.25
0.47
0.70
0.83
0.79
0.57
0.26
-0.05
-0.24
-0.30
-0.26
-0.17
-0.11
-0.08
-0.07
-0.06
-0.05
-0.01
0.05
0.16
0.31
0.47
0.55
0.50
0.27
-0.13
-0.59
-1.00
-1.24
-1.26
-1.07
-0.77
-0.48
-0.28
-0.22
-0.25
-0.30
-0.27
-0.13
0.13
0.42
0.70
0.89
0.98
0.95
0.82
0.59
0.31
0.05
-0.12
-0.16
-0.08
0.06
0.19
0.28
0.35
0.44
0.59
0.77
0.93
1.00
0.91
0.67
0.36
0.05
-0.17
-0.32
-0.42
-0.51
-0.62
-0.72
-0.77
-0.76
-0.73
-0.74
-0.84
-1.00
-1.15
-1.19
-1.03
-0.70
-0.32
-0.03
0.07
-0.05
-0.29
-0.57
-0.82
-0.99
-1.08
-1.08
-0.98
-0.78
-0.48
-0.15
0.19
0.48
0.77
1.06
1.35
1.59
1.68
1.53
1.17
0.69
0.27
0.07
0.14
0.42
0.74
0.92
0.84
0.47
-0.11
-0.73
-1.19
-1.36
-1.19
-0.75
-0.21
0.28
0.59
0.69
0.62
0.45
0.23
0.02
-0.15
-0.25
-0.24
-0.11
0.08
0.25
0.30
0.17
-0.11
-0.46
-0.79
-1.02
-1.13
-1.13
-1.02
-0.83
-0.56
-0.26
0.04
0.27
0.37
0.31
0.09
-0.20
-0.47
-0.60
-0.51
-0.22
0.22
0.66
0.97
1.06
0.89
0.55
0.17
-0.10
-0.16
0.02
0.37
0.72
0.94
0.90
0.63
0.21
-0.16
-0.37
-0.37
-0.22
-0.09
-0.11
-0.31
-0.59
-0.79
-0.77
-0.49
-0.06
0.33
0.53
0.47
0.23
-0.04
-0.20
-0.21
-0.11
-0.03
-0.03
-0.13
-0.24
-0.28
-0.20
-0.03
0.09
0.07
-0.14
-0.46
-0.74
-0.83
-0.65
-0.24
0.26
0.72
1.04
1.20
1.25
1.24
1.20
1.09
0.85
0.48
0.04
-0.34
-0.53
-0.46
-0.20
0.11
0.32
0.33
0.17
-0.06
-0.27
-0.38
-0.41
-0.37
-0.27
-0.11
0.15
0.48
0.80
1.02
1.06
0.88
0.55
0.20
-0.07
-0.19
-0.17
-0.06
0.08
0.19
0.24
0.22
0.15
0.06
-0.01
-0.04
-0.02
-0.00
-0.02
-0.10
-0.20
-0.28
-0.25
-0.10
0.14
0.41
0.60
0.66
0.59
0.43
0.25
0.11
0.03
0.01
0.06
0.14
0.19
0.16
-0.00
-0.30
-0.64
-0.92
-1.00
-0.83
-0.46
-0.04
0.22
0.21
-0.11
-0.61
-1.09
-1.33
-1.24
-0.84
-0.31
0.16
0.41
0.41
0.24
0.03
-0.14
-0.23
-0.31
-0.44
-0.61
-0.73
-0.70
-0.45
-0.02
0.42
0.70
0.69
0.36
-0.17
-0.75
-1.24
-1.54
-1.62
-1.52
-1.27
-0.93
-0.53
-0.11
0.30
0.65
0.90
1.04
1.07
0.99
0.86
0.72
0.60
0.52
0.49
0.48
0.47
0.47
0.45
0.44
0.41
0.37
0.32
0.26
0.22
0.19
0.20
0.24
0.33
0.42
0.47
0.43
0.31
0.16
0.11
0.23
0.55
0.95
1.26
1.31
1.05
0.55
-0.04
-0.51
-0.74
-0.74
-0.59
-0.45
-0.42
-0.54
-0.76
-1.00
-1.14
-1.13
-0.98
-0.71
-0.36
0.00
0.35
0.62
0.76
0.72
0.50
0.15
-0.20
-0.40
-0.34
-0.00
0.52
1.05
1.39
1.40
1.08
0.57
0.06
-0.27
-0.35
-0.25
-0.09
0.00
0.00
-0.06
-0.11
-0.12
-0.06
0.02
0.06
0.04
-0.08
-0.27
-0.53
-0.82
-1.10
-1.33
-1.47
-1.50
-1.44
-1.34
-1.26
-1.23
-1.26
-1.31
-1.34
-1.29
-1.14
-0.90
-0.57
-0.19
0.22
0.60
0.91
1.08
1.09
0.96
0.76
0.62
0.63
0.79
1.05
1.28
1.37
1.29
1.05
0.74
0.45
0.22
0.09
0.06
0.11
0.23
0.41
0.63
0.83
0.97
0.96
0.78
0.44
-0.00
-0.43
-0.72
-0.81
-0.72
-0.51
-0.28
-0.10
0.01
0.09
0.21
0.40
0.65
0.89
1.02
1.00
0.81
0.50
0.14
-0.21
-0.53
-0.83
-1.10
-1.27
-1.27
-1.07
-0.72
-0.35
-0.15
-0.23
-0.57
-1.01
-1.30
-1.28
-0.91
-0.34
0.20
0.51
0.51
0.27
-0.05
-0.28
-0.31
-0.14
0.17
0.51
0.81
0.99
1.06
1.04
0.98
0.91
0.80
0.64
0.39
0.06
-0.28
-0.51
-0.52
-0.27
0.18
0.68
1.03
1.11
0.89
0.49
0.08
-0.18
-0.24
-0.15
-0.05
-0.04
-0.19
-0.48
-0.85
-1.25
-1.63
-1.94
-2.08
-2.00
-1.67
-1.15
-0.60
-0.20
-0.05
-0.13
-0.33
-0.47
-0.45
-0.27
-0.00
0.26
0.45
0.54
0.52
0.38
0.16
-0.11
-0.34
-0.45
-0.39
-0.14
0.26
0.72
1.13
1.39
1.45
1.34
1.10
0.83
0.59
0.41
0.28
0.15
-0.00
-0.17
-0.31
-0.40
-0.42
-0.42
-0.46
-0.56
-0.70
-0.79
-0.74
-0.53
-0.23
0.03
0.16
0.10
-0.07
-0.23
-0.26
-0.14
0.03
0.14
0.11
-0.05
-0.24
-0.35
-0.33
-0.22
-0.10
0.00
0.11
0.28
0.57
0.93
1.24
1.34
1.17
0.78
0.35
0.03
-0.12
-0.14
-0.16
-0.27
-0.47
-0.69
-0.80
-0.72
-0.47
-0.13
0.19
0.41
0.50
0.47
0.36
0.22
0.09
0.03
0.07
0.22
0.41
0.59
0.69
0.71
0.65
0.54
0.41
0.28
0.16
0.06
-0.04
-0.12
-0.20
-0.31
-0.45
-0.59
-0.71
-0.73
-0.63
-0.42
-0.17
0.04
0.14
0.10
-0.04
-0.21
-0.32
-0.35
-0.30
-0.25
-0.29
-0.47
-0.74
-1.02
-1.20
-1.21
-1.05
-0.79
-0.50
-0.23
0.01
0.28
0.61
1.02
1.45
1.79
1.89
1.67
1.16
0.48
-0.20
-0.70
-0.94
-0.95
-0.80
-0.62
-0.47
-0.38
-0.32
-0.30
-0.31
-0.38
-0.55
-0.78
-0.99
-1.10
-1.02
-0.77
-0.43
-0.15
0.01
0.02
-0.02
0.04
0.26
0.65
1.07
1.37
1.44
1.28
0.99
0.70
0.54
0.54
0.66
0.84
1.00
1.12
1.18
1.21
1.21
1.19
1.18
1.18
1.20
1.19
1.10
0.88
0.51
0.06
-0.36
-0.61
-0.61
-0.39
-0.06
0.21
0.31
0.16
-0.18
-0.65
-1.12
-1.51
-1.71
-1.71
-1.50
-1.18
-0.85
-0.60
-0.48
-0.43
-0.36
-0.22
-0.04
0.08
0.06
-0.11
-0.35
-0.50
-0.47
-0.26
0.04
0.32
0.53
0.66
0.75
0.84
0.88
0.80
0.61
0.32
0.05
-0.07
-0.01
0.20
0.45
0.63
0.67
0.59
0.43
0.26
0.08
-0.08
-0.23
-0.28
-0.19
0.07
0.43
0.75
0.85
0.67
0.28
-0.16
-0.48
-0.61
-0.60
-0.59
-0.65
-0.81
-0.97
-1.04
-0.99
-0.85
-0.71
-0.65
-0.67
-0.71
-0.68
-0.50
-0.13
0.38
0.92
1.33
1.52
1.42
1.07
0.58
0.09
-0.29
-0.48
-0.45
-0.25
0.07
0.40
0.66
0.76
0.69
0.48
0.22
0.03
-0.03
0.08
0.28
0.44
0.44
0.23
-0.21
-0.75
-1.28
-1.63
-1.74
-1.60
-1.30
-0.96
-0.68
-0.52
-0.49
-0.52
-0.56
-0.54
-0.43
-0.25
-0.03
0.18
0.33
0.41
0.44
0.44
0.44
0.47
0.52
0.57
0.58
0.52
0.40
0.25
0.12
0.07
0.08
0.12
0.09
-0.06
-0.32
-0.63
-0.85
-0.90
-0.74
-0.42
-0.03
0.31
0.53
0.61
0.53
0.34
0.09
-0.15
-0.29
-0.28
-0.10
0.21
0.55
0.81
0.89
0.75
0.43
-0.01
-0.45
-0.78
-0.94
-0.89
-0.66
-0.35
-0.05
0.15
0.27
0.35
0.44
0.56
0.65
0.62
0.42
0.06
-0.32
-0.53
-0.47
-0.13
0.32
0.69
0.82
0.67
0.33
-0.05
-0.33
-0.48
-0.51
-0.47
-0.42
-0.37
-0.32
-0.30
-0.31
-0.39
-0.54
-0.72
-0.85
-0.86
-0.71
-0.44
-0.13
0.11
0.22
0.22
0.15
0.08
0.07
0.13
0.20
0.23
0.15
-0.05
-0.34
-0.59
-0.71
-0.61
-0.30
0.09
0.38
0.42
0.14
-0.36
-0.86
-1.14
-1.06
-0.64
-0.03
0.55
0.93
1.02
0.85
0.49
0.07
-0.29
-0.53
-0.58
-0.46
-0.21
0.09
0.35
0.52
0.57
0.52
0.41
0.26
0.11
0.01
-0.03
0.00
0.07
0.14
0.19
0.25
0.36
0.55
0.79
1.01
1.14
1.14
1.06
0.97
0.95
1.02
1.15
1.25
1.23
1.05
0.71
0.29
-0.13
-0.45
-0.59
-0.56
-0.39
-0.19
-0.04
0.02
-0.03
-0.14
-0.28
-0.41
-0.54
-0.67
-0.76
-0.77
-0.64
-0.36
0.01
0.40
0.71
0.87
0.91
0.87
0.81
0.76
0.70
0.57
0.31
-0.07
-0.50
-0.86
-1.07
-1.03
-0.77
-0.36
0.08
0.43
0.61
0.63
0.54
0.43
0.37
0.41
0.58
0.81
1.02
1.10
0.95
0.54
-0.05
-0.69
-1.18
-1.40
-1.30
-0.98
-0.58
-0.24
-0.04
0.06
0.12
0.18
0.22
0.17
-0.04
-0.41
-0.80
-1.06
-1.07
-0.82
-0.44
-0.12
-0.02
-0.14
-0.39
-0.60
-0.62
-0.41
-0.02
0.43
0.80
0.99
0.96
0.70
0.28
-0.19
-0.60
-0.84
-0.84
-0.59
-0.16
0.34
0.79
1.07
1.16
1.08
0.94
0.80
0.71
0.67
0.64
0.59
0.52
0.40
0.24
0.02
-0.26
-0.57
-0.82
-0.94
-0.92
-0.80
-0.70
-0.71
-0.85
-1.06
-1.24
-1.32
-1.33
-1.34
-1.44
-1.64
-1.83
-1.90
-1.73
-1.35
-0.88
-0.48
-0.30
-0.35
-0.57
-0.82
-0.96
-0.93
-0.73
-0.43
-0.11
0.15
0.32
0.41
0.47
0.55
0.72
0.96
1.22
1.40
1.41
1.21
0.86
0.46
0.18
0.10
0.23
0.47
0.68
0.74
0.63
0.44
0.29
0.29
0.46
0.73
0.98
1.15
1.21
1.23
1.26
1.29
1.24
1.02
0.59
0.04
-0.45
-0.69
-0.64
-0.38
-0.10
0.06
0.04
-0.10
-0.22
-0.27
-0.22
-0.16
-0.12
-0.15
-0.19
-0.24
-0.29
-0.40
-0.61
-0.88
-1.14
-1.28
-1.26
-1.09
-0.87
-0.71
-0.68
-0.78
-0.91
-0.97
-0.85
-0.51
0.03
0.68
1.34
1.88
2.19
2.20
1.90
1.37
0.75
0.19
-0.14
-0.18
0.05
0.42
0.77
0.95
0.93
0.74
0.50
0.33
0.29
0.36
0.42
0.39
0.22
-0.04
-0.25
-0.32
-0.21
0.01
0.18
0.16
-0.10
-0.54
-1.01
-1.33
-1.39
-1.19
-0.80
-0.36
-0.01
0.14
0.06
-0.20
-0.54
-0.84
-0.96
-0.85
-0.52
-0.06
0.40
0.75
0.91
0.89
0.75
0.55
0.37
0.24
0.17
0.19
0.31
0.53
0.79
1.01
1.10
0.97
0.63
0.18
-0.23
-0.47
-0.48
-0.31
-0.06
0.16
0.33
0.46
0.58
0.69
0.71
0.54
0.17
-0.38
-0.96
-1.46
-1.80
-1.94
-1.92
-1.76
-1.52
-1.23
-0.97
-0.80
-0.77
-0.86
-0.99
-1.05
-0.97
-0.72
-0.32
0.16
0.66
1.08
1.36
1.44
1.32
1.05
0.76
0.57
0.55
0.65
0.75
0.71
0.45
-0.00
-0.51
-0.92
-1.10
-1.04
-0.80
-0.45
-0.08
0.29
0.63
0.87
0.93
0.76
0.38
-0.06
-0.37
-0.46
-0.34
-0.13
-0.01
-0.09
-0.35
-0.69
-0.95
-1.05
-1.00
-0.84
-0.65
-0.47
-0.36
-0.34
-0.45
-0.68
-0.97
-1.18
-1.17
-0.93
-0.51
-0.08
0.21
0.28
0.16
0.01
-0.02
0.14
0.46
0.79
0.98
0.93
0.68
0.33
0.06
-0.06
-0.04
0.02
0.05
0.01
-0.04
-0.00
0.11
0.24
0.24
0.07
-0.24
-0.54
-0.68
-0.59
-0.34
-0.07
0.13
0.21
0.25
0.28
0.33
0.32
0.19
-0.03
-0.26
-0.35
-0.22
0.10
0.46
0.72
0.78
0.66
0.43
0.15
-0.12
-0.39
-0.65
-0.82
-0.84
-0.66
-0.35
-0.01
0.17
0.12
-0.13
-0.45
-0.66
-0.61
-0.30
0.19
0.68
0.98
1.03
0.86
0.62
0.47
0.49
0.66
0.83
0.83
0.57
0.13
-0.29
-0.48
-0.34
0.06
0.54
0.88
0.96
0.79
0.50
0.25
0.17
0.25
0.42
0.55
0.52
0.30
-0.07
-0.48
-0.81
-1.00
-1.02
-0.93
-0.79
-0.68
-0.60
-0.51
-0.36
-0.12
0.21
0.56
0.85
1.03
1.12
1.15
1.22
1.35
1.53
1.68
1.73
1.64
1.38
1.00
0.54
0.11
-0.19
-0.26
-0.04
0.40
0.92
1.31
1.42
1.18
0.69
0.09
-0.44
-0.81
-0.97
-0.92
-0.69
-0.30
0.17
0.63
0.95
1.05
0.93
0.62
0.21
-0.23
-0.64
-1.02
-1.34
-1.59
-1.75
-1.79
-1.70
-1.49
-1.24
-1.01
-0.89
-0.93
-1.09
-1.25
-1.26
-1.02
-0.55
-0.01
0.37
0.45
0.21
-0.20
-0.59
-0.80
-0.80
-0.64
-0.42
-0.20
0.00
0.23
0.50
0.79
1.00
1.08
0.97
0.73
0.45
0.23
0.15
0.21
0.35
0.46
0.48
0.37
0.17
-0.10
-0.36
-0.58
-0.71
-0.70
-0.56
-0.32
-0.03
0.21
0.34
0.35
0.26
0.11
-0.07
-0.25
-0.40
-0.50
-0.50
-0.38
-0.17
0.07
0.26
0.34
0.29
0.19
0.10
0.08
0.14
0.21
0.23
0.13
-0.06
-0.25
-0.37
-0.33
-0.16
0.07
0.27
0.34
0.28
0.10
-0.10
-0.25
-0.30
-0.25
-0.15
-0.06
-0.05
-0.16
-0.41
-0.73
-1.03
-1.18
-1.11
-0.83
-0.42
-0.02
0.23
0.25
0.01
-0.37
-0.78
-1.05
-1.08
-0.82
-0.32
0.27
0.77
1.01
0.94
0.62
0.21
-0.07
-0.13
0.03
0.27
0.43
0.42
0.29
0.16
0.14
0.25
0.39
0.43
0.29
-0.01
-0.35
-0.58
-0.62
-0.47
-0.18
0.13
0.43
0.69
0.89
1.04
1.12
1.10
1.00
0.86
0.75
0.71
0.72
0.76
0.78
0.78
0.77
0.76
0.72
0.63
0.45
0.19
-0.09
-0.33
-0.48
-0.55
-0.60
-0.65
-0.68
-0.60
-0.34
0.07
0.52
0.81
0.79
0.45
-0.10
-0.63
-0.95
-0.97
-0.73
-0.34
0.04
0.34
0.53
0.61
0.62
0.56
0.44
0.27
0.08
-0.13
-0.32
-0.49
-0.62
-0.72
-0.76
-0.73
-0.58
-0.35
-0.07
0.18
0.32
0.31
0.14
-0.16
-0.53
-0.90
-1.18
-1.33
-1.31
-1.18
-0.98
-0.79
-0.65
-0.59
-0.60
-0.64
-0.70
-0.74
-0.72
-0.62
-0.42
-0.14
0.14
0.35
0.45
0.46
0.44
0.46
0.53
0.65
0.76
0.81
0.80
0.77
0.79
0.86
0.93
0.91
0.72
0.31
-0.21
-0.69
-0.95
-0.91
-0.59
-0.11
0.36
0.74
1.00
1.17
1.26
1.26
1.11
0.82
0.44
0.08
-0.17
-0.28
-0.30
-0.33
-0.42
-0.59
-0.74
-0.79
-0.67
-0.39
-0.02
0.33
0.57
0.61
0.46
0.15
-0.22
-0.50
-0.62
-0.56
-0.40
-0.30
-0.34
-0.53
-0.72
-0.78
-0.60
-0.21
0.26
0.62
0.79
0.79
0.69
0.61
0.60
0.61
0.58
0.45
0.23
-0.06
-0.33
-0.56
-0.72
-0.79
-0.78
-0.69
-0.53
-0.35
-0.17
-0.03
0.04
0.05
0.01
-0.03
-0.03
0.01
0.06
0.07
-0.01
-0.20
-0.48
-0.79
-1.04
-1.13
-1.00
-0.65
-0.15
0.36
0.72
0.84
0.71
0.42
0.15
0.06
0.19
0.47
0.72
0.76
0.55
0.17
-0.19
-0.35
-0.23
0.15
0.62
1.05
1.31
1.39
1.31
1.12
0.87
0.59
0.30
0.01
-0.26
-0.49
-0.66
-0.77
-0.81
-0.78
-0.67
-0.46
-0.14
0.26
0.68
1.02
1.16
1.05
0.71
0.23
-0.25
-0.59
-0.74
-0.72
-0.59
-0.42
-0.24
-0.09
0.02
0.08
0.08
0.01
-0.13
-0.28
-0.44
-0.57
-0.70
-0.81
-0.87
-0.83
-0.66
-0.36
-0.00
0.31
0.50
0.54
0.50
0.48
0.56
0.75
1.00
1.20
1.26
1.09
0.68
0.14
-0.38
-0.69
-0.64
-0.24
0.37
0.92
1.18
1.04
0.57
-0.03
-0.56
-0.88
-0.96
-0.88
-0.72
-0.55
-0.39
-0.24
-0.08
0.09
0.27
0.44
0.53
0.48
0.29
-0.02
-0.33
-0.51
-0.50
-0.29
-0.01
0.19
0.20
-0.03
-0.44
-0.93
-1.35
-1.60
-1.58
-1.28
-0.75
-0.09
0.53
0.94
1.07
0.96
0.72
0.53
0.46
0.51
0.57
0.55
0.43
0.25
0.15
0.19
0.35
0.51
0.53
0.34
-0.02
-0.38
-0.61
-0.58
-0.34
-0.02
0.23
0.32
0.22
0.04
-0.12
-0.17
-0.09
0.06
0.21
0.28
0.24
0.10
-0.08
-0.28
-0.44
-0.54
-0.55
-0.48
-0.38
-0.30
-0.30
-0.44
-0.69
-0.99
-1.25
-1.37
-1.25
-0.89
-0.34
0.30
0.85
1.18
1.19
0.89
0.38
-0.14
-0.53
-0.72
-0.73
-0.66
-0.61
-0.63
-0.65
-0.62
-0.46
-0.18
0.14
0.38
0.44
0.31
0.05
-0.18
-0.25
-0.09
0.28
0.72
1.09
1.26
1.22
1.02
0.81
0.70
0.74
0.89
1.05
1.09
0.95
0.62
0.16
-0.32
-0.75
-1.06
-1.22
-1.22
-1.09
-0.89
-0.67
-0.47
-0.29
-0.11
0.07
0.28
0.49
0.68
0.83
0.93
0.99
1.02
1.00
0.92
0.81
0.67
0.56
0.47
0.40
0.28
0.08
-0.19
-0.46
-0.67
-0.76
-0.77
-0.76
-0.79
-0.90
-1.07
-1.22
-1.31
-1.28
-1.17
-0.99
-0.77
-0.54
-0.29
-0.07
0.08
0.12
0.01
-0.21
-0.46
-0.61
-0.58
-0.37
-0.09
0.11
0.11
-0.11
-0.43
-0.72
-0.84
-0.76
-0.52
-0.20
0.10
0.36
0.54
0.66
0.72
0.72
0.69
0.67
0.70
0.79
0.92
1.04
1.13
1.21
1.31
1.45
1.61
1.71
1.65
1.43
1.04
0.56
0.08
-0.33
-0.65
-0.82
-0.83
-0.65
-0.29
0.14
0.48
0.60
0.44
0.06
-0.39
-0.72
-0.83
-0.75
-0.62
-0.59
-0.73
-1.01
-1.26
-1.35
-1.22
-0.92
-0.58
-0.30
-0.14
-0.05
0.04
0.18
0.37
0.55
0.68
0.74
0.74
0.70
0.63
0.50
0.31
0.08
-0.09
-0.13
0.01
0.25
0.45
0.47
0.24
-0.15
-0.56
-0.80
-0.81
-0.63
-0.36
-0.14
-0.04
-0.06
-0.13
-0.16
-0.13
0.00
0.21
0.48
0.77
1.00
1.10
0.97
0.63
0.15
-0.31
-0.57
-0.55
-0.28
0.08
0.34
0.35
0.13
-0.20
-0.46
-0.52
-0.35
-0.07
0.19
0.32
0.31
0.25
0.23
0.33
0.53
0.73
0.80
0.68
0.40
0.05
-0.23
-0.35
-0.31
-0.18
-0.05
0.03
0.09
0.17
0.29
0.40
0.43
0.31
0.03
-0.30
-0.60
-0.76
-0.82
-0.82
-0.85
-0.93
-1.03
-1.07
-1.02
-0.88
-0.70
-0.55
-0.46
-0.40
-0.29
-0.08
0.26
0.67
1.03
1.24
1.20
0.94
0.53
0.08
-0.29
-0.52
-0.59
-0.49
-0.26
0.05
0.36
0.59
0.68
0.62
0.50
0.39
0.37
0.41
0.47
0.45
0.33
0.13
-0.07
-0.19
-0.22
-0.15
-0.05
0.02
0.01
-0.09
-0.25
-0.39
-0.43
-0.29
0.02
0.42
0.77
0.91
0.76
0.38
-0.07
-0.42
-0.54
-0.43
-0.22
-0.06
-0.03
-0.14
-0.30
-0.41
-0.40
-0.29
-0.15
-0.08
-0.10
-0.19
-0.29
-0.37
-0.43
-0.54
-0.72
-0.94
-1.11
-1.12
-0.90
-0.45
0.10
0.61
0.93
1.00
0.84
0.58
0.35
0.24
0.27
0.35
0.38
0.30
0.12
-0.05
-0.11
-0.02
0.16
0.28
0.22
-0.01
-0.30
-0.49
-0.45
-0.18
0.17
0.41
0.43
0.19
-0.19
-0.55
-0.77
-0.77
-0.58
-0.28
0.01
0.21
0.23
0.07
-0.19
-0.45
-0.58
-0.49
-0.18
0.24
0.62
0.79
0.66
0.24
-0.34
-0.93
-1.36
-1.51
-1.36
-0.98
-0.48
0.01
0.38
0.58
0.62
0.56
0.48
0.44
0.47
0.59
0.76
0.94
1.05
1.09
1.03
0.94
0.88
0.89
1.00
1.18
1.36
1.43
1.31
0.95
0.39
-0.25
-0.81
-1.15
-1.24
-1.13
-0.96
-0.84
-0.82
-0.82
-0.77
-0.57
-0.28
0.02
0.19
0.19
0.03
-0.22
-0.47
-0.66
-0.80
-0.86
-0.84
-0.74
-0.60
-0.49
-0.49
-0.62
-0.82
-0.99
-0.99
-0.74
-0.26
0.36
0.96
1.37
1.50
1.35
1.02
0.69
0.51
0.55
0.77
1.03
1.19
1.18
1.03
0.82
0.65
0.56
0.52
0.48
0.39
0.24
0.02
-0.24
-0.49
-0.71
-0.83
-0.81
-0.66
-0.44
-0.26
-0.19
-0.26
-0.38
-0.46
-0.44
-0.33
-0.21
-0.19
-0.33
-0.57
-0.82
-0.92
-0.81
-0.50
-0.10
0.22
0.36
0.29
0.04
-0.26
-0.50
-0.57
-0.42
-0.11
0.29
0.64
0.84
0.85
0.69
0.47
0.28
0.23
0.32
0.51
0.72
0.85
0.84
0.70
0.47
0.21
0.01
-0.06
0.01
0.20
0.41
0.51
0.41
