1623168311.00
64.000000
-0.00
-0.00
-0.00
-0.00
-0.00
-0.00
-0.00
-0.00
-0.00
-0.00
0.00
0.01
0.01
-0.00
-0.03
-0.05
-0.05
0.00
0.13
0.36
0.66
1.01
1.37
1.72
2.06
2.40
2.79
3.24
3.80
4.42
5.09
5.74
6.36
6.95
7.54
8.17
8.89
9.80
10.82
11.89
12.92
13.88
14.80
15.81
17.10
18.77
21.06
23.79
26.76
29.70
32.47
35.13
37.92
41.22
45.28
50.50
56.60
63.20
69.83
76.19
82.27
88.42
95.13
102.81
112.01
122.43
133.56
144.80
155.68
166.13
176.41
187.47
197.73
209.46
223.61
240.81
260.36
279.58
293.91
298.14
288.23
262.81
224.25
176.87
125.73
74.76
25.87
-20.82
-65.95
-110.10
-153.47
-195.97
-237.98
-279.60
-320.00
-356.71
-385.89
-403.52
-406.99
-396.46
-374.74
-346.48
-316.38
-287.81
-262.20
-239.41
-218.67
-199.32
-181.14
-164.07
-148.08
-132.93
-118.26
-103.90
-89.92
-76.68
-64.65
-54.17
-45.20
-37.44
-30.44
-23.72
-17.03
-10.42
-4.16
1.37
5.90
9.37
11.99
14.11
16.06
18.04
20.04
21.88
23.36
24.33
24.80
24.90
24.80
24.67
24.56
24.45
24.22
23.78
23.07
22.15
21.13
20.17
19.37
18.79
18.39
18.07
17.72
17.27
16.69
16.04
15.40
14.83
14.41
14.11
13.91
13.73
13.53
13.28
12.96
12.58
12.14
11.70
11.28
10.92
10.66
10.46
10.29
10.08
9.80
9.47
9.16
8.92
8.76
8.66
8.55
8.37
8.13
7.88
7.69
7.59
7.57
7.52
7.35
7.01
6.52
5.97
5.46
5.06
4.74
4.44
4.09
3.66
3.18
2.70
2.26
1.85
1.46
1.06
0.67
0.32
0.03
-0.22
-0.48
-0.79
-1.19
-1.68
-2.23
-2.82
-3.44
-4.08
-4.69
-5.22
-5.62
-5.87
-6.01
-6.12
-6.28
-6.54
-6.90
-7.30
-7.67
-7.94
-8.05
-7.97
-7.69
-7.23
-6.65
-6.01
-5.38
-4.82
-4.30
-3.80
-3.26
-2.62
-1.87
-1.04
-0.15
0.74
1.55
2.24
2.80
3.26
3.65
4.05
4.46
4.87
5.25
5.55
5.75
5.86
5.93
6.01
6.13
6.32
6.56
6.80
6.95
6.94
6.79
6.56
6.40
6.41
6.57
6.76
6.81
6.57
6.04
5.30
4.54
3.85
3.27
2.76
2.32
1.96
1.77
1.79
1.96
2.13
2.14
1.89
1.42
0.88
0.47
0.29
0.31
0.42
0.49
0.47
0.39
0.36
0.42
0.56
0.70
0.76
0.70
0.59
0.54
0.64
0.91
1.24
1.50
1.54
1.34
0.97
0.56
0.26
0.13
0.16
0.25
0.32
0.32
0.30
0.35
0.52
0.82
1.18
1.52
1.75
1.84
1.82
1.75
1.65
1.50
1.27
0.95
0.57
0.23
0.04
0.07
0.30
0.66
1.03
1.35
1.60
1.83
2.07
2.32
2.50
2.53
2.37
2.07
1.76
1.59
1.59
1.73
1.85
1.82
1.60
1.26
0.96
0.87
1.05
1.47
2.00
2.47
2.79
2.94
2.95
2.85
2.69
2.47
2.19
1.90
1.64
1.47
1.44
1.49
1.56
1.56
1.43
1.17
0.82
0.43
0.06
-0.26
-0.52
-0.73
-0.89
-0.96
-0.94
-0.80
-0.58
-0.32
-0.08
0.07
0.12
0.08
-0.02
-0.14
-0.25
-0.33
-0.31
-0.15
0.15
0.55
0.94
1.17
1.17
0.91
0.48
0.02
-0.34
-0.51
-0.43
-0.14
0.32
0.83
1.26
1.50
1.48
1.20
0.76
0.29
-0.11
-0.36
-0.47
-0.50
-0.53
-0.57
-0.63
-0.65
-0.59
-0.46
-0.28
-0.11
-0.00
0.02
0.00
-0.00
0.05
0.18
0.33
0.46
0.52
0.48
0.37
0.20
0.02
-0.15
-0.30
-0.39
-0.41
-0.33
-0.16
0.08
0.38
0.68
0.96
1.19
1.33
1.32
1.16
0.86
0.49
0.15
-0.08
-0.18
-0.16
-0.10
-0.03
0.04
0.14
0.28
0.46
0.59
0.62
0.52
0.34
0.20
0.18
0.29
0.49
0.70
0.84
0.90
0.90
0.88
0.89
0.93
0.96
0.95
0.85
0.63
0.32
0.01
-0.22
-0.29
-0.20
-0.01
0.19
0.28
0.23
0.05
-0.18
-0.37
-0.42
-0.29
0.00
0.38
0.75
0.98
0.99
0.77
0.36
-0.15
-0.64
-1.00
-1.14
-1.05
-0.73
-0.29
0.16
0.48
0.59
0.44
0.10
-0.30
-0.62
-0.75
-0.67
-0.44
-0.17
0.05
0.20
0.30
0.38
0.50
0.62
0.69
0.67
0.52
0.27
0.01
-0.17
-0.21
-0.11
0.09
0.29
0.39
0.31
0.05
-0.33
-0.71
-0.98
-1.09
-1.05
-0.90
-0.72
-0.55
-0.39
-0.25
-0.13
-0.04
-0.01
-0.05
-0.11
-0.16
-0.16
-0.09
0.02
0.12
0.22
0.35
0.53
0.75
0.92
0.96
0.83
0.58
0.32
0.17
0.18
0.31
0.44
0.48
0.40
0.22
0.03
-0.13
-0.25
-0.34
-0.45
-0.59
-0.72
-0.79
-0.76
-0.61
-0.39
-0.13
0.10
0.28
0.39
0.45
0.44
0.36
0.22
0.08
0.02
0.12
0.41
0.81
1.15
1.27
1.07
0.60
0.02
-0.47
-0.71
-0.69
-0.47
-0.17
0.14
0.40
0.62
0.77
0.82
0.76
0.59
0.36
0.14
0.01
-0.02
0.05
0.19
0.33
0.45
0.52
0.54
0.51
0.45
0.41
0.38
0.33
0.24
0.08
-0.14
-0.37
-0.52
-0.53
-0.40
-0.16
0.10
0.30
0.37
0.30
0.12
-0.14
-0.42
-0.67
-0.82
-0.80
-0.59
-0.20
0.25
0.62
0.77
0.63
0.30
-0.09
-0.36
-0.45
-0.37
-0.24
-0.14
-0.11
-0.10
-0.05
0.06
0.17
0.27
0.31
0.33
0.36
0.42
0.47
0.42
0.23
-0.05
-0.32
-0.45
-0.36
-0.07
0.32
0.65
0.82
0.79
0.59
0.31
0.05
-0.13
-0.23
-0.28
-0.37
-0.52
-0.73
-0.97
-1.17
-1.29
-1.33
-1.29
-1.17
-0.96
-0.65
-0.28
0.07
0.30
0.37
0.31
0.22
0.19
0.23
0.33
0.40
0.41
0.38
0.38
0.45
0.58
0.68
0.67
0.50
0.21
-0.10
-0.37
-0.57
-0.71
-0.83
-0.94
-1.00
-0.97
-0.86
-0.65
-0.39
-0.08
0.25
0.60
0.95
1.25
1.44
1.46
1.29
0.96
0.52
0.07
-0.32
-0.57
-0.67
-0.63
-0.49
-0.33
-0.21
-0.16
-0.16
-0.17
-0.11
0.07
0.39
0.81
1.23
1.55
1.66
1.53
1.20
0.77
0.39
0.17
0.16
0.32
0.56
0.75
0.79
0.64
0.34
-0.01
-0.29
-0.43
-0.44
-0.38
-0.35
-0.41
-0.54
-0.67
-0.71
-0.61
-0.39
-0.14
0.07
0.18
0.25
0.33
0.48
0.67
0.81
0.81
0.64
0.39
0.21
0.21
0.40
0.70
0.91
0.90
0.64
0.20
-0.26
-0.60
-0.76
-0.72
-0.53
-0.24
0.12
0.49
0.81
1.01
1.05
0.90
0.61
0.22
-0.19
-0.52
-0.73
-0.77
-0.65
-0.38
-0.04
0.34
0.66
0.90
1.02
1.00
0.83
0.50
0.03
-0.53
-1.09
-1.56
-1.87
-2.00
-2.00
-1.89
-1.73
-1.50
-1.21
-0.85
-0.48
-0.15
0.02
-0.00
-0.19
-0.42
-0.56
-0.47
-0.15
0.31
0.74
0.98
0.98
0.76
0.47
0.22
0.08
0.04
0.02
0.00
-0.02
-0.04
-0.02
-0.01
-0.02
-0.06
-0.11
-0.10
0.01
0.23
0.47
0.65
0.73
0.69
0.57
0.41
0.20
-0.08
-0.44
-0.83
-1.15
-1.26
-1.04
-0.51
0.21
0.90
1.33
1.39
1.06
0.47
-0.19
-0.73
-1.03
-1.08
-0.91
-0.63
-0.34
-0.12
-0.01
0.02
-0.00
-0.02
-0.02
-0.00
0.00
-0.03
-0.09
-0.16
-0.24
-0.30
-0.31
-0.26
-0.09
0.19
0.54
0.87
1.07
1.06
0.86
0.57
0.35
0.30
0.43
0.66
0.89
0.99
0.91
0.70
0.42
0.15
-0.07
-0.24
-0.37
-0.44
-0.43
-0.31
-0.06
0.28
0.62
0.86
0.93
0.84
0.64
0.43
0.28
0.22
0.26
0.36
0.51
0.66
0.75
0.73
0.54
0.22
-0.17
-0.52
-0.72
-0.76
-0.71
-0.68
-0.77
-0.99
-1.27
-1.48
-1.53
-1.39
-1.13
-0.87
-0.73
-0.81
-1.09
-1.52
-1.95
-2.21
-2.17
-1.77
-1.10
-0.34
0.28
0.61
0.56
0.20
-0.33
-0.86
-1.26
-1.43
-1.32
-0.93
-0.30
0.47
1.23
1.81
2.06
2.00
1.72
1.42
1.24
1.25
1.35
1.44
1.41
1.24
1.03
0.86
0.79
0.78
0.76
0.69
0.57
0.47
0.48
0.62
0.86
1.12
1.34
1.48
1.54
1.56
1.57
1.57
1.59
1.61
1.62
1.62
1.58
1.49
1.34
1.16
0.99
0.84
0.73
0.62
0.45
0.19
-0.17
-0.60
-1.03
-1.37
-1.57
-1.62
-1.57
-1.47
-1.38
-1.31
-1.25
-1.19
-1.13
-1.07
-1.04
-1.06
-1.10
-1.13
-1.11
-1.02
-0.89
-0.74
-0.62
-0.53
-0.44
-0.33
-0.18
-0.03
0.06
0.02
-0.18
-0.51
-0.88
-1.15
-1.27
-1.21
-1.04
-0.84
-0.65
-0.47
-0.25
0.05
0.39
0.64
0.71
0.53
0.19
-0.17
-0.41
-0.45
-0.33
-0.17
-0.04
0.01
0.02
0.03
0.06
0.11
0.11
0.03
-0.14
-0.35
-0.55
-0.66
-0.66
-0.55
-0.39
-0.25
-0.19
-0.24
-0.35
-0.45
-0.46
-0.34
-0.12
0.14
0.34
0.47
0.50
0.47
0.38
0.27
0.16
0.09
0.11
0.24
0.47
0.75
1.02
1.21
1.31
1.28
1.14
0.92
0.68
0.47
0.36
0.36
0.46
0.60
0.72
0.79
0.81
0.81
0.80
0.79
0.76
0.66
0.47
0.18
-0.17
-0.48
-0.66
-0.64
-0.48
-0.29
-0.20
-0.28
-0.50
-0.70
-0.73
-0.53
-0.15
0.24
0.43
0.32
-0.06
-0.59
-1.08
-1.39
-1.48
-1.36
-1.09
-0.77
-0.47
-0.29
-0.29
-0.48
-0.79
-1.13
-1.38
-1.44
-1.28
-0.96
-0.55
-0.14
0.19
0.38
0.41
0.25
-0.03
-0.37
-0.66
-0.80
-0.75
-0.51
-0.14
0.26
0.62
0.87
0.99
1.02
1.05
1.17
1.43
1.82
2.21
2.47
2.47
2.21
1.77
1.32
0.98
0.81
0.77
0.81
0.86
0.91
0.97
1.06
1.12
1.11
0.97
0.73
0.46
0.27
0.21
0.26
0.32
0.29
0.12
-0.15
-0.45
-0.70
-0.87
-0.98
-1.08
-1.18
-1.28
-1.31
-1.29
-1.21
-1.16
-1.18
-1.30
-1.46
-1.58
-1.56
-1.39
-1.08
-0.75
-0.52
-0.48
-0.65
-0.96
-1.28
-1.48
-1.50
-1.35
-1.10
-0.86
-0.71
-0.66
-0.67
-0.70
-0.68
-0.58
-0.45
-0.33
-0.27
-0.33
-0.47
-0.64
-0.79
-0.85
-0.82
-0.73
-0.64
-0.62
-0.71
-0.86
-1.00
-1.04
-0.90
-0.58
-0.13
0.33
0.70
0.92
1.01
1.04
1.09
1.17
1.27
1.35
1.37
1.37
1.39
1.43
1.44
1.33
1.04
0.54
-0.07
-0.66
-1.12
-1.38
-1.51
-1.62
-1.79
-2.08
-2.45
-2.85
-3.20
-3.51
-3.79
-4.13
-4.60
-5.24
-6.00
-6.77
-7.28
-7.22
-6.26
-4.24
-1.23
2.41
6.14
9.39
11.74
13.00
13.25
12.68
11.46
9.74
7.63
5.27
2.93
0.89
-0.62
-1.53
-1.96
-2.14
-2.28
-2.50
-2.81
-3.14
-3.42
-3.62
-3.73
-3.72
-3.55
-3.18
-2.61
-1.91
-1.16
-0.48
0.10
0.56
0.93
1.23
1.50
1.73
1.93
2.08
2.17
2.15
2.02
1.79
1.49
1.18
0.90
0.67
0.50
0.39
0.34
0.36
0.43
0.51
0.54
0.46
0.26
-0.01
-0.27
-0.46
-0.54
-0.52
-0.41
-0.20
0.11
0.50
0.89
1.20
1.37
1.41
1.39
1.40
1.48
1.56
1.54
1.37
1.09
0.82
0.70
0.78
1.01
1.24
1.33
1.20
0.83
0.31
-0.28
-0.86
-1.35
-1.74
-1.99
-2.13
-2.16
-2.11
-2.02
-1.91
-1.81
-1.76
-1.78
-1.86
-1.98
-2.09
-2.13
-2.04
-1.80
-1.39
-0.84
-0.22
0.39
0.91
1.26
1.45
1.50
1.50
1.52
1.56
1.58
1.53
1.33
1.01
0.65
0.39
0.31
0.43
0.65
0.80
0.71
0.34
-0.19
-0.68
-0.90
-0.75
-0.24
0.46
1.13
1.56
1.60
1.18
0.35
-0.75
-1.87
-2.72
-3.08
-2.91
-2.37
-1.73
-1.23
-0.98
-0.94
-0.98
-0.99
-0.91
-0.77
-0.63
-0.51
-0.44
-0.43
-0.52
-0.73
-1.05
-1.43
-1.78
-2.05
-2.23
-2.35
-2.44
-2.54
-2.64
-2.76
-2.93
-3.19
-3.58
-4.10
-4.68
-5.21
-5.56
-5.66
-5.54
-5.26
-4.96
-4.73
-4.66
-4.72
-4.85
-4.90
-4.70
-4.07
-2.94
-1.31
0.69
2.82
4.87
6.62
8.01
9.09
9.99
10.84
11.74
12.69
13.63
14.42
14.95
15.17
15.07
14.73
14.23
13.59
12.76
11.61
10.05
8.07
5.79
3.45
1.31
-0.42
-1.66
-2.42
-2.80
-2.89
-2.77
-2.53
-2.24
-1.96
-1.72
-1.47
-1.17
-0.78
-0.33
0.09
0.39
0.52
0.49
0.36
0.15
-0.15
-0.60
-1.23
-1.96
-2.68
-3.19
-3.38
-3.20
-2.77
-2.25
-1.81
-1.58
-1.57
-1.72
-1.95
-2.18
-2.39
-2.56
-2.69
-2.75
-2.75
-2.65
-2.48
-2.25
-2.02
-1.82
-1.64
-1.49
-1.39
-1.37
-1.46
-1.66
-1.92
-2.15
-2.30
-2.35
-2.36
-2.40
-2.51
-2.66
-2.77
-2.75
-2.56
-2.19
-1.75
-1.38
-1.17
-1.16
-1.30
-1.46
-1.50
-1.35
-1.03
-0.67
-0.38
-0.25
-0.28
-0.40
-0.53
-0.62
-0.65
-0.62
-0.52
-0.34
-0.07
0.28
0.65
0.95
1.11
1.11
0.94
0.65
0.30
-0.05
-0.34
-0.52
-0.59
-0.53
-0.37
-0.09
0.31
0.84
1.47
2.10
2.64
2.97
3.04
2.88
2.56
2.16
1.74
1.32
0.92
0.55
0.25
0.06
-0.00
0.05
0.13
0.16
0.06
-0.17
-0.47
-0.71
-0.75
-0.55
-0.13
0.37
0.74
0.83
0.59
0.07
-0.55
-1.10
-1.51
-1.80
-2.05
-2.35
-2.72
-3.09
-3.37
-3.46
-3.39
-3.22
-3.06
-2.98
-3.00
-3.11
-3.29
-3.55
-3.88
-4.27
-4.62
-4.77
-4.52
-3.70
-2.33
-0.61
1.12
2.51
3.34
3.60
3.50
3.26
3.06
2.94
2.83
2.63
2.32
1.93
1.52
1.09
0.58
-0.07
-0.86
-1.70
-2.43
-2.91
-3.09
-3.04
-2.87
-2.68
-2.47
-2.16
-1.61
-0.72
0.56
2.21
4.18
6.32
8.47
10.35
11.67
12.15
11.67
10.29
8.23
5.81
3.29
0.78
-1.71
-4.21
-6.67
-8.88
-10.55
-11.44
-11.52
-11.04
-10.49
-10.44
-11.32
-13.17
-15.59
-17.84
-18.99
-18.26
-15.19
-9.71
-2.18
6.61
15.54
23.23
28.40
30.22
28.64
24.46
19.01
13.62
9.11
5.61
2.79
0.25
-2.10
-3.97
-4.98
-4.99
-4.33
-3.60
-3.48
-4.34
-6.17
-8.63
-11.13
-12.91
-13.11
-10.98
-6.06
1.42
10.50
19.60
26.98
31.31
32.00
29.27
23.99
17.27
10.19
3.62
-1.83
-5.84
-8.39
-9.73
-10.29
-10.54
-10.79
-11.18
-11.66
-12.10
-12.37
-12.40
-12.21
-11.85
-11.38
-10.85
-10.24
-9.41
-8.09
-5.93
-2.59
2.03
7.62
13.43
18.45
21.74
22.73
21.43
18.35
14.22
9.67
5.15
0.86
-2.98
-6.06
-8.06
-8.77
-8.30
-7.13
-5.91
-5.22
-5.35
-6.19
-7.39
-8.39
-8.67
-7.88
-5.85
-2.74
1.03
4.88
8.18
10.50
11.66
11.75
11.04
9.78
8.15
6.27
4.26
2.28
0.57
-0.71
-1.47
-1.82
-2.00
-2.26
-2.79
-3.57
-4.43
-5.11
-5.46
-5.47
-5.30
-5.16
-5.19
-5.39
-5.60
-5.61
-5.19
-4.25
-2.83
-1.15
0.42
1.54
1.97
1.73
1.11
0.52
0.34
0.71
1.53
2.48
3.29
3.82
4.09
4.20
4.23
4.10
3.72
3.02
2.05
0.99
0.06
-0.57
-0.85
-0.87
-0.76
-0.67
-0.68
-0.86
-1.18
-1.61
-2.05
-2.40
-2.60
-2.64
-2.59
-2.57
-2.66
-2.87
-3.15
-3.37
-3.44
-3.35
-3.16
-2.94
-2.75
-2.56
-2.34
-2.06
-1.71
-1.34
-1.03
-0.81
-0.70
-0.64
-0.58
-0.42
-0.11
0.32
0.82
1.27
1.59
1.71
1.63
1.38
1.02
0.62
0.26
0.03
0.00
0.20
0.56
0.99
1.33
1.46
1.35
1.01
0.53
0.05
-0.32
-0.46
-0.38
-0.12
0.18
0.40
0.44
0.30
0.02
-0.32
-0.63
-0.89
-1.07
-1.13
-1.05
-0.82
-0.45
-0.04
0.30
0.48
0.49
0.41
0.33
0.30
0.32
0.31
0.23
0.06
-0.13
-0.26
-0.26
-0.14
0.03
0.14
0.12
-0.02
-0.21
-0.33
-0.31
-0.11
0.23
0.63
0.99
1.24
1.33
1.27
1.08
0.79
0.47
0.12
-0.22
-0.51
-0.73
-0.83
-0.82
-0.73
-0.61
-0.51
-0.45
-0.43
-0.44
-0.46
-0.52
-0.61
-0.73
-0.83
-0.89
-0.89
-0.89
-0.92
-1.00
-1.06
-0.95
-0.59
-0.00
0.67
1.22
1.51
1.54
1.45
1.41
1.50
1.70
1.87
1.90
1.72
1.42
1.07
0.75
0.45
0.13
-0.24
-0.65
-0.99
-1.20
-1.24
-1.15
-1.06
-1.06
-1.20
-1.43
-1.67
-1.83
-1.87
-1.78
-1.57
-1.26
-0.86
-0.37
0.11
0.50
0.71
0.74
0.67
0.67
0.84
1.21
1.64
1.94
1.92
1.55
0.89
0.16
-0.43
-0.75
-0.75
-0.50
-0.14
0.21
0.43
0.48
0.38
0.20
0.02
-0.11
-0.15
-0.10
0.03
0.25
0.53
0.84
1.11
1.29
1.35
1.29
1.14
0.95
0.76
0.60
0.50
0.44
0.41
0.35
0.22
-0.03
-0.39
-0.82
-1.19
-1.43
-1.48
-1.37
-1.22
-1.14
-1.19
-1.34
-1.49
-1.52
-1.35
-1.01
-0.61
-0.28
-0.09
-0.06
-0.11
-0.20
-0.30
-0.45
-0.67
-0.92
-1.10
-1.09
-0.85
-0.44
-0.03
0.23
0.23
0.03
-0.24
-0.42
-0.38
-0.11
0.37
0.96
1.55
2.03
2.30
2.32
2.09
1.74
1.42
1.28
1.38
1.69
2.05
2.31
2.35
2.14
1.69
1.11
0.50
-0.04
-0.45
-0.69
-0.73
-0.60
-0.38
-0.15
0.00
0.00
-0.14
-0.34
-0.51
-0.61
-0.62
-0.64
-0.74
-0.95
-1.26
-1.58
-1.87
-2.07
-2.16
-2.15
-1.99
-1.67
-1.22
-0.72
-0.29
-0.03
-0.00
-0.17
-0.45
-0.73
-0.91
-0.94
-0.80
-0.54
-0.24
0.00
0.12
0.10
0.01
-0.07
-0.04
0.10
0.30
0.47
0.56
0.60
0.68
0.86
1.12
1.32
1.32
1.03
0.49
-0.12
-0.60
-0.80
-0.75
-0.52
-0.24
0.03
0.31
0.61
0.93
1.19
1.28
1.15
0.83
0.46
0.17
0.09
0.21
0.48
0.78
1.01
1.10
1.02
0.77
0.39
-0.06
-0.50
-0.83
-1.00
-1.02
-0.91
-0.74
-0.59
-0.50
-0.50
-0.56
-0.67
-0.80
-0.97
-1.20
-1.55
-1.98
-2.42
-2.72
-2.76
-2.47
-1.94
-1.34
-0.83
-0.52
-0.40
-0.41
-0.45
-0.46
-0.36
-0.10
0.36
0.98
1.68
2.32
2.74
2.87
2.78
2.60
2.49
2.57
2.81
3.11
3.31
3.34
3.14
2.76
2.28
1.76
1.27
0.80
0.40
0.08
-0.11
-0.13
0.01
0.24
0.43
0.44
0.20
-0.24
-0.70
-0.99
-0.95
-0.57
0.02
0.58
0.93
0.97
0.72
0.27
-0.26
-0.76
-1.19
-1.51
-1.71
-1.74
-1.63
-1.42
-1.19
-1.02
-0.95
-0.95
-0.91
-0.74
-0.41
0.04
0.48
0.77
0.80
0.55
0.13
-0.32
-0.64
-0.79
-0.79
-0.76
-0.77
-0.82
-0.84
-0.78
-0.61
-0.41
-0.31
-0.40
-0.66
-0.95
-1.14
-1.13
-0.94
-0.71
-0.57
-0.60
-0.77
-0.96
-1.08
-1.07
-0.96
-0.78
-0.54
-0.21
0.23
0.76
1.31
1.74
1.91
1.76
1.33
0.78
0.30
0.05
0.08
0.35
0.73
1.07
1.32
1.47
1.59
1.73
1.87
1.92
1.75
1.30
0.59
-0.21
-0.88
-1.25
-1.26
-0.97
-0.54
-0.13
0.16
0.32
0.38
0.40
0.42
0.43
0.40
0.35
0.30
0.30
0.36
0.44
0.46
0.29
-0.13
-0.74
-1.42
-1.98
-2.28
-2.31
-2.12
-1.84
-1.57
-1.35
-1.16
-0.94
-0.67
-0.36
-0.06
0.15
0.22
0.13
-0.05
-0.25
-0.38
-0.40
-0.30
-0.12
0.08
0.23
0.26
0.17
-0.02
-0.27
-0.48
-0.60
-0.59
-0.47
-0.25
0.01
0.30
0.62
0.97
1.32
1.64
1.89
2.04
2.11
2.10
2.05
1.95
1.79
1.53
1.14
0.63
0.01
-0.64
-1.22
-1.57
-1.64
-1.43
-1.08
-0.80
-0.74
-0.97
-1.38
-1.82
-2.07
-2.03
-1.69
-1.16
-0.58
-0.11
0.16
0.16
-0.06
-0.46
-0.91
-1.31
-1.56
-1.61
-1.46
-1.19
-0.88
-0.63
-0.53
-0.62
-0.87
-1.17
-1.34
-1.22
-0.72
0.16
1.25
2.34
3.20
3.66
3.72
3.42
2.92
2.33
1.77
1.29
0.90
0.60
0.38
0.23
0.15
0.13
0.16
0.22
0.26
0.27
0.28
0.31
0.38
0.46
0.50
0.39
0.11
-0.30
-0.68
-0.86
-0.76
-0.39
0.10
0.51
0.72
0.69
0.50
0.27
0.09
-0.03
-0.11
-0.18
-0.25
-0.25
-0.15
0.07
0.35
0.62
0.78
0.81
0.70
0.51
0.32
0.17
0.09
0.07
0.06
0.03
-0.07
-0.27
-0.57
-0.89
-1.18
-1.39
-1.49
-1.52
-1.49
-1.40
-1.20
-0.90
-0.50
-0.02
0.44
0.83
1.06
1.06
0.79
0.24
-0.49
-1.27
-1.90
-2.25
-2.27
-2.07
-1.79
-1.60
-1.59
-1.76
-2.03
-2.32
-2.50
-2.49
-2.22
-1.73
-1.13
-0.62
-0.39
-0.51
-0.85
-1.14
-1.09
-0.51
0.61
2.03
3.46
4.58
5.21
5.33
5.02
4.43
3.68
2.87
2.07
1.33
0.74
0.36
0.24
0.36
0.66
1.02
1.31
1.47
1.47
1.40
1.33
1.31
1.26
1.08
0.63
-0.08
-0.96
-1.79
-2.36
-2.59
-2.49
-2.22
-1.94
-1.74
-1.60
-1.48
-1.32
-1.11
-0.90
-0.73
-0.61
-0.54
-0.49
-0.41
-0.28
-0.07
0.23
0.57
0.87
1.03
0.99
0.72
0.34
-0.01
-0.19
-0.16
0.01
0.18
0.24
0.15
-0.04
-0.22
-0.34
-0.33
-0.23
-0.04
0.22
0.52
0.82
1.08
1.24
1.26
1.13
0.87
0.53
0.17
-0.15
-0.39
-0.52
-0.53
-0.46
-0.34
-0.22
-0.10
0.01
0.15
0.33
0.52
0.63
0.57
0.28
-0.20
-0.69
-1.01
-1.00
-0.63
-0.06
0.44
0.65
0.48
0.02
-0.50
-0.87
-0.96
-0.79
-0.48
-0.13
0.14
0.32
0.38
0.35
0.21
-0.01
-0.27
-0.54
-0.76
-0.91
-0.96
-0.94
-0.86
-0.77
-0.70
-0.70
-0.73
-0.79
-0.84
-0.87
-0.92
-1.05
-1.30
-1.65
-2.01
-2.27
-2.35
-2.22
-1.93
-1.56
-1.17
-0.82
-0.54
-0.33
-0.20
-0.16
-0.26
-0.52
-0.97
-1.60
-2.36
-3.16
-3.87
-4.41
-4.72
-4.84
-4.89
-4.99
-5.25
-5.59
-5.84
-5.73
-5.01
-3.55
-1.40
1.26
4.15
6.99
9.53
11.59
13.06
13.88
14.03
13.56
12.57
11.19
9.56
7.84
6.14
4.57
3.15
1.86
0.63
-0.61
-1.82
-2.94
-3.83
-4.42
-4.69
-4.72
-4.63
-4.50
-4.38
-4.24
-4.05
-3.76
-3.39
-2.98
-2.58
-2.26
-2.04
-1.92
-1.86
-1.81
-1.76
-1.71
-1.66
-1.63
-1.60
-1.56
-1.49
-1.43
-1.46
-1.66
-2.04
-2.53
-3.03
-3.44
-3.69
-3.81
-3.86
-3.87
-3.86
-3.83
-3.74
-3.58
-3.35
-3.09
-2.81
-2.58
-2.46
-2.54
-2.87
-3.47
-4.25
-5.08
-5.84
-6.44
-6.84
-7.07
-7.18
-7.24
-7.33
-7.53
-7.89
-8.36
-8.83
-9.18
-9.30
-9.18
-8.84
-8.27
-7.37
-5.93
-3.68
-0.41
3.89
9.03
14.65
20.28
25.46
29.76
32.86
34.51
34.61
33.23
30.64
27.28
23.66
20.25
17.35
15.05
13.25
11.75
10.38
9.06
7.83
6.79
6.01
5.50
5.17
4.84
4.36
3.60
2.49
1.05
-0.63
-2.39
-4.06
-5.47
-6.46
-6.97
-7.00
-6.65
-6.12
-5.62
-5.31
-5.27
-5.41
-5.61
-5.72
-5.66
-5.38
-4.95
-4.43
-3.89
-3.42
-3.10
-2.99
-3.12
-3.44
-3.85
-4.18
-4.32
-4.23
-4.01
-3.78
-3.65
-3.61
-3.60
-3.48
-3.22
-2.86
-2.50
-2.26
-2.20
-2.31
-2.53
-2.77
-3.00
-3.20
-3.33
-3.35
-3.24
-2.99
-2.68
-2.39
-2.21
-2.13
-2.12
-2.10
-2.00
-1.81
-1.56
-1.28
-1.05
-0.95
-1.00
-1.20
-1.49
-1.75
-1.83
-1.65
-1.19
-0.49
0.34
1.19
1.99
2.65
3.05
3.09
2.68
1.84
0.68
-0.52
-1.48
-1.96
-1.83
-1.17
-0.18
0.82
1.52
1.72
1.38
0.65
-0.19
-0.85
-1.11
-0.89
-0.26
0.66
1.71
2.75
3.68
4.44
4.96
5.22
5.23
5.00
4.58
4.01
3.31
2.50
1.62
0.67
-0.34
-1.39
-2.51
-3.72
-5.00
-6.29
-7.48
-8.40
-8.91
-8.86
-8.23
-7.08
-5.58
-4.01
-2.66
-1.73
-1.29
-1.26
-1.42
-1.57
-1.57
-1.45
-1.34
-1.37
-1.60
-1.98
-2.39
-2.74
-2.98
-3.11
-3.08
-2.78
-2.07
-0.90
0.61
2.18
3.46
4.20
4.32
3.92
3.20
2.39
1.69
1.28
1.29
1.78
2.65
3.64
4.44
4.83
4.82
4.62
4.54
4.83
5.54
6.56
7.64
8.56
9.17
9.35
9.09
8.40
7.34
6.06
4.80
3.81
3.28
3.21
3.42
3.62
3.50
2.89
1.80
0.39
-1.10
-2.44
-3.50
-4.20
-4.55
-4.62
-4.51
-4.39
-4.44
-4.80
-5.46
-6.26
-6.94
-7.28
-7.18
-6.80
-6.38
-6.19
-6.31
-6.68
-7.08
-7.28
-7.16
-6.74
-6.13
-5.45
-4.76
-4.05
-3.30
-2.53
-1.80
-1.22
-0.83
-0.60
-0.41
-0.11
0.38
1.09
1.90
2.65
3.19
3.46
3.56
3.66
3.90
4.37
5.02
5.70
6.26
6.57
6.58
6.31
5.80
5.15
4.47
3.86
3.43
3.23
3.23
3.33
3.44
3.45
3.31
3.00
2.55
1.98
1.37
0.73
0.09
-0.55
-1.20
-1.81
-2.32
-2.69
-2.91
-3.05
-3.20
-3.40
-3.64
-3.84
-3.88
-3.73
-3.41
-3.02
-2.67
-2.43
-2.31
-2.31
-2.40
-2.53
-2.63
-2.61
-2.39
-1.93
-1.33
-0.73
-0.28
-0.08
-0.11
-0.27
-0.45
-0.55
-0.55
-0.44
-0.24
0.03
0.39
0.84
1.35
1.89
2.40
2.82
3.12
3.27
3.25
3.10
2.84
2.53
2.20
1.85
1.48
1.05
0.58
0.11
-0.28
-0.58
-0.81
-1.04
-1.32
-1.68
-2.08
-2.48
-2.84
-3.14
-3.39
-3.57
-3.66
-3.63
-3.45
-3.13
-2.72
-2.31
-1.96
-1.72
-1.58
-1.43
-1.13
-0.57
0.33
1.48
2.72
3.79
4.52
4.82
4.77
4.50
4.19
3.94
3.79
3.72
3.63
3.43
3.02
2.40
1.64
0.90
0.34
0.08
0.13
0.41
0.76
1.05
1.23
1.33
1.45
1.67
2.07
2.65
3.41
4.32
5.30
6.23
6.91
7.12
6.74
5.81
4.61
3.51
2.83
2.70
2.94
3.17
3.05
2.46
1.53
0.57
-0.13
-0.46
-0.51
-0.49
-0.55
-0.72
-0.86
-0.77
-0.33
0.43
1.32
2.04
2.33
2.09
1.40
0.46
-0.49
-1.28
-1.88
-2.37
-2.84
-3.31
-3.72
-4.00
-4.10
-4.05
-3.98
-4.00
-4.15
-4.39
-4.65
-4.81
-4.81
-4.66
-4.38
-4.04
-3.74
-3.51
-3.39
-3.34
-3.31
-3.24
-3.10
-2.89
-2.65
-2.42
-2.23
-2.11
-2.08
-2.15
-2.32
-2.57
-2.84
-3.10
-3.28
-3.37
-3.34
-3.20
-2.96
-2.64
-2.28
-1.92
-1.66
-1.54
-1.56
-1.70
-1.86
-1.95
-1.92
-1.79
-1.60
-1.43
-1.28
-1.11
-0.86
-0.48
-0.01
0.48
0.89
1.15
1.26
1.25
1.16
1.06
0.97
0.93
0.96
1.08
1.30
1.63
2.03
2.47
2.85
3.08
3.09
2.85
2.40
1.89
1.46
1.24
1.26
1.49
1.83
2.19
2.52
2.77
2.92
2.92
2.76
2.46
2.10
1.78
1.60
1.57
1.61
1.63
1.53
1.26
0.83
0.33
-0.17
-0.60
-0.91
-1.11
-1.18
-1.14
-1.01
-0.77
-0.46
-0.10
0.28
0.63
0.90
1.04
1.06
1.02
1.02
1.15
1.48
1.95
2.47
2.92
3.21
3.34
3.39
3.43
3.51
3.61
3.63
3.51
3.19
2.69
2.06
1.37
0.65
-0.08
-0.80
-1.47
-2.04
-2.45
-2.68
-2.73
-2.67
-2.58
-2.53
-2.60
-2.79
-3.04
-3.28
-3.38
-3.31
-3.10
-2.84
-2.70
-2.76
-3.06
-3.47
-3.84
-4.01
-3.89
-3.49
-2.88
-2.15
-1.40
-0.72
-0.21
0.07
0.10
-0.02
-0.12
0.00
0.43
1.11
1.81
2.28
2.35
2.00
1.35
0.59
-0.11
-0.66
-1.02
-1.13
-0.98
-0.54
0.13
0.90
1.56
1.92
1.88
1.49
0.87
0.22
-0.28
-0.53
-0.50
-0.25
0.09
0.41
0.59
0.59
0.40
0.11
-0.15
-0.25
-0.12
0.18
0.52
0.75
0.76
0.52
0.12
-0.32
-0.69
-0.96
-1.12
-1.21
-1.28
-1.32
-1.35
-1.35
-1.32
-1.23
-1.11
-0.99
-0.88
-0.82
-0.79
-0.76
-0.70
-0.58
-0.43
-0.31
-0.30
-0.43
-0.67
-0.97
-1.24
-1.35
-1.21
-0.76
0.06
1.20
2.56
3.92
5.03
5.69
5.80
5.39
4.64
3.76
2.91
2.19
1.55
0.95
0.35
-0.21
-0.66
-0.89
-0.88
-0.71
-0.49
-0.39
-0.48
-0.75
-1.09
-1.32
-1.34
-1.12
-0.78
-0.47
-0.37
-0.54
-0.90
-1.31
-1.59
-1.64
-1.46
-1.15
-0.86
-0.66
-0.57
-0.53
-0.44
-0.25
-0.00
0.23
0.34
0.30
0.16
0.04
0.01
0.12
0.30
0.44
0.47
0.36
0.20
0.07
0.03
0.07
0.08
-0.01
-0.23
-0.55
-0.82
-0.92
-0.81
-0.53
-0.25
-0.14
-0.27
-0.61
-0.98
-1.20
-1.17
-0.91
-0.57
-0.29
-0.15
-0.10
-0.05
0.05
0.19
0.33
0.38
0.36
0.29
0.24
0.24
0.26
0.25
0.17
0.03
-0.13
-0.23
-0.26
-0.23
-0.17
-0.13
-0.12
-0.16
-0.25
-0.40
-0.58
-0.76
-0.86
-0.81
-0.60
-0.25
0.13
0.44
0.59
0.54
0.34
0.08
-0.15
-0.29
-0.32
-0.29
-0.24
-0.18
-0.12
-0.04
0.10
0.30
0.55
0.77
0.90
0.89
0.75
0.52
0.29
0.12
0.04
0.02
0.03
0.03
-0.00
-0.05
-0.07
-0.03
0.08
0.26
0.44
0.54
0.52
0.37
0.15
-0.05
-0.15
-0.11
0.03
0.21
0.31
0.30
0.16
-0.04
-0.25
-0.37
-0.40
-0.35
-0.28
-0.25
-0.33
-0.49
-0.68
-0.82
-0.84
-0.71
-0.50
-0.29
-0.16
-0.10
-0.09
-0.07
-0.05
-0.09
-0.22
-0.44
-0.67
-0.81
-0.76
-0.55
-0.24
0.06
0.29
0.40
0.38
0.23
-0.03
-0.37
-0.69
-0.87
-0.81
-0.51
-0.06
0.39
0.72
0.90
0.99
1.11
1.34
1.68
2.02
2.21
2.16
1.86
1.42
1.01
0.75
0.66
0.63
0.53
0.27
-0.12
-0.50
-0.71
-0.65
-0.38
-0.06
0.14
0.11
-0.13
-0.44
-0.67
-0.72
-0.55
-0.26
0.04
0.26
0.35
0.33
0.27
0.23
0.21
0.20
0.12
-0.05
-0.28
-0.51
-0.65
-0.63
-0.47
-0.24
0.00
0.20
0.33
0.40
0.40
0.32
0.13
-0.15
-0.45
-0.67
-0.73
-0.61
-0.38
-0.16
-0.05
-0.09
-0.25
-0.42
-0.52
-0.46
-0.25
0.09
0.47
0.80
0.99
1.02
0.89
0.68
0.46
0.30
0.21
0.15
0.11
0.06
0.01
-0.05
-0.13
-0.25
-0.43
-0.63
-0.79
-0.84
-0.74
-0.49
-0.17
0.16
0.39
0.46
0.34
0.07
-0.26
-0.54
-0.71
-0.73
-0.69
-0.64
-0.64
-0.69
-0.75
-0.77
-0.73
-0.65
-0.57
-0.48
-0.39
-0.30
-0.22
-0.17
-0.18
-0.25
-0.34
-0.38
-0.36
-0.25
-0.10
0.05
0.15
0.19
0.20
0.17
0.12
0.00
-0.20
-0.47
-0.71
-0.80
-0.66
-0.29
0.19
0.62
0.86
0.86
0.69
0.46
0.27
0.13
0.02
-0.11
-0.26
-0.37
-0.39
-0.30
-0.13
0.09
0.32
0.55
0.77
0.95
1.01
0.92
0.68
0.37
0.11
-0.00
0.04
0.16
0.27
0.32
0.35
0.46
0.68
0.96
1.15
1.11
0.81
0.35
-0.10
-0.38
-0.46
-0.41
-0.33
-0.29
-0.26
-0.18
0.01
0.27
0.54
0.71
0.73
0.59
0.36
0.10
-0.11
-0.23
-0.23
-0.16
-0.07
-0.01
-0.02
-0.04
-0.04
0.05
0.20
0.32
0.31
0.10
-0.31
-0.82
-1.31
-1.66
-1.80
-1.74
-1.49
-1.13
-0.73
-0.36
-0.12
-0.04
-0.13
-0.31
-0.46
-0.41
-0.05
0.66
1.61
2.57
3.26
3.48
3.13
2.33
1.31
0.31
-0.45
-0.91
-1.09
-1.06
-0.88
-0.58
-0.18
0.26
0.65
0.87
0.88
0.68
0.36
0.06
-0.11
-0.12
-0.00
0.15
0.24
0.23
0.11
-0.05
-0.21
-0.34
-0.44
-0.55
-0.74
-1.01
-1.33
-1.65
-1.87
-1.95
-1.86
-1.67
-1.45
-1.28
-1.25
-1.35
-1.54
-1.75
-1.90
-1.93
-1.78
-1.47
-1.01
-0.49
0.03
0.49
0.84
1.07
1.19
1.20
1.11
0.91
0.62
0.26
-0.06
-0.29
-0.36
-0.31
-0.22
-0.20
-0.32
-0.59
-0.94
-1.24
-1.41
-1.40
-1.27
-1.14
-1.09
-1.17
-1.34
-1.48
-1.48
-1.32
-1.04
-0.76
-0.51
-0.26
0.11
0.74
1.64
2.67
3.62
4.23
4.41
4.23
3.87
3.54
3.36
3.32
3.32
3.25
3.06
2.76
2.41
2.04
1.69
1.33
0.92
0.44
-0.09
-0.58
-0.94
-1.06
-0.94
-0.65
-0.34
-0.15
-0.16
-0.32
-0.54
-0.72
-0.81
-0.85
-0.88
-0.91
-0.92
-0.83
-0.62
-0.35
-0.11
-0.01
-0.12
-0.39
-0.72
-0.98
-1.07
-0.93
-0.63
-0.27
0.02
0.15
0.08
-0.10
-0.31
-0.45
-0.47
-0.41
-0.34
-0.30
-0.31
-0.34
-0.35
-0.34
-0.33
-0.38
-0.47
-0.58
-0.62
-0.53
-0.32
-0.07
0.10
0.13
0.01
-0.17
-0.32
-0.36
-0.28
-0.15
-0.07
-0.09
-0.23
-0.44
-0.66
-0.81
-0.89
-0.93
-0.99
-1.13
-1.35
-1.61
-1.79
-1.78
-1.54
-1.10
-0.58
-0.19
-0.06
-0.29
-0.83
-1.56
-2.28
-2.83
-3.07
-2.94
-2.42
-1.55
-0.46
0.67
1.64
2.28
2.54
2.52
2.44
2.49
2.78
3.27
3.79
4.17
4.30
4.19
3.91
3.52
3.06
2.50
1.82
1.05
0.28
-0.36
-0.76
-0.92
-0.92
-0.88
-0.92
-1.10
-1.40
-1.71
-1.94
-2.01
-1.91
-1.66
-1.33
-1.02
-0.79
-0.74
-0.88
-1.23
-1.73
-2.26
-2.68
-2.82
-2.58
-1.92
-0.94
0.19
1.29
2.20
2.86
3.27
3.49
3.60
3.61
3.54
3.37
3.12
2.84
2.55
2.27
1.98
1.64
1.22
0.73
0.24
-0.19
-0.50
-0.66
-0.70
-0.69
-0.68
-0.71
-0.77
-0.84
-0.88
-0.85
-0.74
-0.54
-0.28
0.01
0.28
0.48
0.56
0.51
0.34
0.09
-0.16
-0.33
-0.40
-0.37
-0.28
-0.20
-0.16
-0.19
-0.29
-0.44
-0.63
-0.80
-0.91
-0.93
-0.85
-0.72
-0.63
-0.65
-0.80
-1.01
-1.21
-1.30
-1.22
-1.00
-0.69
-0.42
-0.25
-0.25
-0.41
-0.66
-0.92
-1.08
-1.06
-0.84
-0.51
-0.19
0.04
0.11
0.03
-0.10
-0.22
-0.25
-0.13
0.11
0.44
0.79
1.05
1.18
1.14
0.97
0.73
0.52
0.40
0.40
0.48
0.61
0.71
0.75
0.71
0.58
0.39
0.19
0.02
-0.11
-0.21
-0.29
-0.36
-0.38
-0.32
-0.10
0.26
0.68
1.04
1.20
1.11
0.81
0.44
0.14
-0.01
-0.00
0.09
0.15
0.12
-0.01
-0.19
-0.33
-0.36
-0.24
-0.01
0.29
0.55
0.72
0.78
0.75
0.67
0.60
0.54
0.47
0.35
0.15
-0.08
-0.28
-0.38
-0.34
-0.20
-0.03
0.09
0.13
0.09
0.03
-0.00
0.02
0.08
0.15
0.17
0.16
0.10
0.03
-0.07
-0.20
-0.39
-0.62
-0.84
-0.99
-1.03
-0.92
-0.72
-0.49
-0.32
-0.26
-0.29
-0.39
-0.47
-0.49
-0.41
-0.26
-0.09
0.03
0.05
-0.05
-0.27
-0.56
-0.88
-1.13
-1.27
-1.21
-0.96
-0.54
-0.03
0.47
0.85
1.08
1.15
1.12
1.03
0.90
0.72
0.48
0.17
-0.18
-0.50
-0.70
-0.71
-0.57
-0.35
-0.14
-0.01
0.05
0.10
0.16
0.20
0.19
0.07
-0.15
-0.39
-0.53
-0.54
-0.43
-0.30
-0.24
-0.30
-0.40
-0.45
-0.38
-0.17
0.13
0.40
0.53
0.47
0.23
-0.10
-0.39
-0.52
-0.40
-0.05
0.43
0.90
1.24
1.37
1.31
1.11
0.88
0.71
0.62
0.59
0.58
0.57
0.55
0.52
0.48
0.37
0.17
-0.14
-0.49
-0.79
-0.92
-0.84
-0.60
-0.30
-0.08
0.00
-0.10
-0.34
-0.64
-0.92
-1.08
-1.09
-0.93
-0.67
-0.38
-0.17
-0.05
0.00
0.04
0.09
0.15
0.17
0.09
-0.12
-0.41
-0.67
-0.76
-0.64
-0.35
0.01
0.29
0.40
0.35
0.21
0.10
0.07
0.08
0.05
-0.10
-0.37
-0.69
-0.94
-1.07
-1.06
-0.98
-0.90
-0.87
-0.86
-0.84
-0.75
-0.61
-0.44
-0.28
-0.14
-0.04
0.04
0.13
0.23
0.35
0.46
0.58
0.68
0.80
0.92
1.02
1.06
0.98
0.81
0.60
0.42
0.32
0.34
0.45
0.59
0.72
0.81
0.85
0.85
0.79
0.68
0.54
0.41
0.31
0.26
0.22
0.11
-0.08
-0.35
-0.61
-0.72
-0.62
-0.31
0.12
0.52
0.74
0.69
0.40
-0.04
-0.45
-0.69
-0.68
-0.45
-0.12
0.18
0.37
0.43
0.41
0.35
0.27
0.14
-0.09
-0.40
-0.70
-0.89
-0.87
-0.66
-0.32
0.03
0.30
0.46
0.51
0.47
0.36
0.17
-0.08
-0.31
-0.47
-0.47
-0.33
-0.13
0.04
0.07
-0.03
-0.20
-0.33
-0.32
-0.16
0.07
0.26
0.31
0.17
-0.09
-0.39
-0.63
-0.75
-0.74
-0.63
-0.44
-0.22
0.02
0.24
0.42
0.52
0.50
0.39
0.22
0.08
0.04
0.11
0.28
0.48
0.66
0.81
0.94
1.02
1.06
1.01
0.87
0.65
0.39
0.13
-0.10
-0.29
-0.44
-0.54
-0.57
-0.51
-0.37
-0.19
-0.04
0.03
0.01
-0.09
-0.21
-0.28
-0.26
-0.13
0.09
0.33
0.55
0.69
0.78
0.81
0.80
0.71
0.50
0.15
-0.28
-0.65
-0.87
-0.86
-0.68
-0.48
-0.38
-0.42
-0.53
-0.59
-0.51
-0.30
-0.06
0.09
0.10
0.04
-0.01
0.06
0.24
0.44
0.53
0.46
0.24
-0.01
-0.16
-0.15
-0.00
0.21
0.40
0.50
0.54
0.53
0.50
0.46
0.41
0.34
0.29
0.25
0.23
0.16
0.03
-0.18
-0.43
-0.65
-0.83
-0.95
-1.04
-1.11
-1.12
-1.06
-0.93
-0.80
-0.73
-0.74
-0.79
-0.75
-0.52
-0.09
0.42
0.83
0.99
0.87
0.60
0.33
0.17
0.12
0.12
0.07
-0.07
-0.25
-0.39
-0.42
-0.36
-0.27
-0.22
-0.23
-0.27
-0.27
-0.18
0.00
0.19
0.30
0.29
0.18
0.03
-0.08
-0.14
-0.18
-0.22
-0.29
-0.35
-0.33
-0.22
-0.03
0.16
0.30
0.38
0.44
0.53
0.68
0.86
0.99
1.04
0.96
0.79
0.54
0.26
-0.01
-0.23
-0.30
-0.17
0.13
0.48
0.71
0.66
0.30
-0.25
-0.77
-1.08
-1.09
-0.87
-0.59
-0.43
-0.43
-0.57
-0.71
-0.73
-0.57
-0.30
-0.03
0.13
0.10
-0.09
-0.35
-0.55
-0.61
-0.50
-0.28
-0.08
-0.00
-0.11
-0.37
-0.73
-1.07
-1.35
-1.50
-1.47
-1.24
-0.78
-0.13
0.62
1.26
1.62
1.61
1.26
0.77
0.39
0.30
0.52
0.93
1.31
1.49
1.40
1.14
0.88
0.74
0.75
0.82
0.83
0.68
0.39
0.07
-0.19
-0.32
-0.33
-0.26
-0.19
-0.14
-0.14
-0.17
-0.22
-0.27
-0.30
-0.28
-0.20
-0.09
-0.01
0.00
-0.06
-0.15
-0.19
-0.15
-0.06
-0.03
-0.16
-0.48
-0.91
-1.27
-1.39
-1.17
-0.66
0.01
0.63
1.05
1.16
0.98
0.58
0.09
-0.32
-0.53
-0.48
-0.19
0.20
0.54
0.67
0.54
0.23
-0.13
-0.37
-0.38
-0.15
0.23
0.63
0.95
1.11
1.11
1.01
0.86
0.73
0.60
0.48
0.32
0.15
-0.01
-0.13
-0.20
-0.27
-0.39
-0.59
-0.84
-1.06
-1.18
-1.17
-1.03
-0.83
-0.63
-0.46
-0.32
-0.18
-0.04
0.08
0.17
0.18
0.15
0.08
0.01
-0.06
-0.12
-0.18
-0.22
-0.21
-0.13
0.02
0.23
0.42
0.51
0.46
0.27
-0.02
-0.34
-0.56
-0.63
-0.50
-0.25
0.01
0.21
0.28
0.25
0.20
0.22
0.37
0.61
0.87
1.03
0.99
0.74
0.31
-0.18
-0.60
-0.84
-0.83
-0.56
-0.12
0.39
0.82
1.03
0.98
0.67
0.21
-0.25
-0.58
-0.68
-0.59
-0.38
-0.15
0.02
0.13
0.22
0.31
0.38
0.37
0.27
0.08
-0.15
-0.32
-0.37
-0.28
-0.09
0.11
0.20
0.13
-0.10
-0.40
-0.67
-0.81
-0.78
-0.63
-0.45
-0.31
-0.23
-0.19
-0.15
-0.10
-0.08
-0.15
-0.30
-0.47
-0.56
-0.46
-0.15
0.33
0.85
1.27
1.49
1.47
1.27
0.99
0.74
0.59
0.57
0.65
0.72
0.73
0.63
0.42
0.15
-0.11
-0.32
-0.44
-0.50
-0.54
-0.58
-0.61
-0.59
-0.49
-0.29
-0.07
0.11
0.15
0.04
-0.16
-0.36
-0.49
-0.52
-0.50
-0.50
-0.53
-0.59
-0.63
-0.63
-0.59
-0.55
-0.53
-0.50
-0.43
-0.27
-0.04
0.22
0.42
0.49
0.40
0.22
0.04
-0.05
0.02
0.23
0.49
0.70
0.79
0.74
0.58
0.35
0.11
-0.13
-0.36
-0.55
-0.66
-0.65
-0.51
-0.24
0.11
0.48
0.81
1.01
1.03
0.83
0.46
0.03
-0.32
-0.49
-0.47
-0.31
-0.16
-0.08
-0.09
-0.12
-0.07
0.10
0.37
0.64
0.82
0.84
0.69
0.43
0.12
-0.16
-0.34
-0.43
-0.43
-0.38
-0.34
-0.33
-0.35
-0.39
-0.45
-0.49
-0.54
-0.58
-0.62
-0.63
-0.57
-0.40
-0.14
0.16
0.39
0.44
0.27
-0.12
-0.64
-1.14
-1.46
-1.49
-1.22
-0.75
-0.24
0.15
0.34
0.33
0.23
0.15
0.19
0.36
0.61
0.83
0.95
0.91
0.74
0.49
0.23
0.03
-0.06
-0.03
0.09
0.25
0.36
0.39
0.29
0.11
-0.09
-0.25
-0.32
-0.29
-0.19
-0.05
0.09
0.25
0.41
0.54
0.57
0.48
0.25
-0.05
-0.32
-0.50
-0.53
-0.45
-0.30
-0.11
0.08
0.25
0.36
0.37
0.27
0.11
-0.03
-0.06
0.07
0.33
0.64
0.92
1.13
1.25
1.30
1.27
1.13
0.85
0.46
0.01
-0.41
-0.71
-0.89
-0.97
-1.01
-1.02
-0.99
-0.90
-0.74
-0.54
-0.32
-0.13
0.00
0.06
0.03
-0.10
-0.30
-0.56
-0.80
-0.95
-0.96
-0.84
-0.63
-0.39
-0.19
-0.05
0.01
0.00
-0.04
-0.06
-0.03
0.07
0.22
0.34
0.36
0.28
0.12
-0.02
-0.07
-0.00
0.14
0.28
0.33
0.25
0.05
-0.18
-0.37
-0.43
-0.33
-0.07
0.27
0.62
0.91
1.07
1.10
1.02
0.87
0.67
0.44
0.21
-0.01
-0.18
-0.28
-0.28
-0.16
0.03
0.23
0.36
0.34
0.17
-0.11
-0.41
-0.62
-0.71
-0.69
-0.62
-0.55
-0.53
-0.54
-0.56
-0.57
-0.53
-0.42
-0.21
0.11
0.50
0.90
1.18
1.25
1.05
0.63
0.12
-0.31
-0.50
-0.38
-0.03
0.38
0.63
0.59
0.27
-0.19
-0.58
-0.73
-0.61
-0.33
-0.04
0.13
0.15
0.07
-0.04
-0.12
-0.17
-0.22
-0.29
-0.34
-0.35
-0.26
-0.09
0.09
0.23
0.28
0.24
0.16
0.12
0.15
0.24
0.35
0.39
0.33
0.22
0.10
0.05
0.09
0.16
0.20
0.20
0.19
0.22
0.31
0.39
0.38
0.19
-0.16
-0.56
-0.87
-0.99
-0.92
-0.72
-0.49
-0.29
-0.14
-0.05
-0.04
-0.11
-0.23
-0.32
-0.28
-0.06
0.32
0.74
1.06
1.18
1.08
0.83
0.53
0.25
0.04
-0.11
-0.20
-0.24
-0.22
-0.13
0.01
0.17
0.32
0.39
0.33
0.12
-0.20
-0.52
-0.72
-0.72
-0.51
-0.21
0.04
0.09
-0.10
-0.44
-0.77
-0.93
-0.84
-0.51
-0.04
0.46
0.88
1.14
1.18
1.00
0.62
0.12
-0.38
-0.76
-0.94
-0.92
-0.77
-0.55
-0.31
-0.06
0.17
0.37
0.46
0.40
0.17
-0.21
-0.63
-0.98
-1.14
-1.09
-0.83
-0.45
-0.08
0.19
0.33
0.36
0.32
0.27
0.19
0.06
-0.15
-0.40
-0.58
-0.57
-0.31
0.17
0.72
1.16
1.38
1.36
1.18
0.95
0.77
0.65
0.60
0.57
0.54
0.52
0.51
0.51
0.55
0.60
0.67
0.76
0.84
0.87
0.82
0.69
0.52
0.40
0.36
0.41
0.43
0.31
-0.01
-0.50
-0.99
-1.31
-1.35
-1.14
-0.83
-0.62
-0.61
-0.79
-1.04
-1.21
-1.24
-1.14
-1.01
-0.93
-0.92
-0.93
-0.90
-0.82
-0.68
-0.56
-0.48
-0.43
-0.37
-0.24
0.01
0.36
0.74
1.04
1.18
1.12
0.86
0.50
0.13
-0.12
-0.22
-0.14
0.06
0.30
0.53
0.71
0.79
0.79
0.70
0.52
0.27
0.00
-0.23
-0.37
-0.37
-0.24
-0.03
0.17
0.27
0.23
0.09
-0.07
-0.16
-0.14
-0.04
0.07
0.13
0.12
0.07
0.04
0.04
0.05
0.04
-0.00
-0.05
-0.06
-0.02
0.06
0.10
0.05
-0.10
-0.29
-0.45
-0.53
-0.56
-0.62
-0.77
-1.01
-1.25
-1.33
-1.18
-0.81
-0.37
-0.05
-0.02
-0.31
-0.84
-1.44
-1.98
-2.35
-2.52
-2.52
-2.37
-2.10
-1.78
-1.50
-1.36
-1.42
-1.69
-2.07
-2.46
-2.75
-2.93
-3.03
-3.11
-3.19
-3.26
-3.24
-3.05
-2.59
-1.77
-0.52
1.17
3.20
5.34
7.34
8.92
9.90
10.21
9.86
8.94
7.58
5.98
4.41
3.12
2.30
1.96
1.97
2.09
2.09
1.85
1.39
0.76
0.08
-0.60
-1.23
-1.74
-2.07
-2.17
-2.04
-1.75
-1.40
-1.08
-0.83
-0.62
-0.40
-0.13
0.18
0.46
0.65
0.66
0.48
0.13
-0.27
-0.60
-0.74
-0.65
-0.40
-0.09
0.19
0.38
0.51
0.61
0.71
0.81
0.87
0.85
0.71
0.50
0.25
0.04
-0.10
-0.15
-0.16
-0.18
-0.27
-0.45
-0.68
-0.86
-0.90
-0.77
-0.50
-0.17
0.10
0.24
0.20
-0.03
-0.42
-0.87
-1.26
-1.46
-1.37
-1.00
-0.48
-0.00
0.25
0.20
-0.13
-0.58
-1.01
-1.30
-1.41
-1.35
-1.16
-0.87
-0.53
-0.18
0.11
0.29
0.32
0.21
0.03
-0.18
-0.37
-0.50
-0.56
-0.54
-0.44
-0.28
-0.10
0.01
0.04
-0.03
-0.13
-0.18
-0.13
0.04
0.26
0.45
0.57
0.59
0.50
0.36
0.16
-0.05
-0.27
-0.45
-0.58
-0.62
-0.57
-0.43
-0.23
-0.04
0.13
0.25
0.34
0.43
0.55
0.71
0.85
0.95
0.95
0.88
0.76
0.65
0.56
0.50
0.44
0.34
0.20
0.04
-0.12
-0.28
-0.44
-0.60
-0.75
-0.83
-0.80
-0.64
-0.41
-0.15
0.07
0.21
0.27
0.23
0.11
-0.10
-0.37
-0.67
-0.96
-1.19
-1.33
-1.34
-1.20
-0.92
-0.56
-0.21
-0.00
-0.03
-0.28
-0.65
-0.97
-1.11
-1.01
-0.72
-0.34
0.00
0.24
0.37
0.39
0.31
0.14
-0.08
-0.28
-0.36
-0.24
0.07
0.47
0.79
0.91
0.75
0.39
-0.02
-0.32
-0.42
-0.33
-0.11
0.15
0.41
0.66
0.88
1.05
1.13
1.06
0.84
0.50
0.12
-0.20
-0.39
-0.44
-0.38
-0.24
-0.11
-0.02
-0.00
-0.06
-0.19
-0.35
-0.52
-0.62
-0.63
-0.54
-0.40
-0.25
-0.16
-0.12
-0.12
-0.11
-0.04
0.10
0.29
0.48
0.65
0.77
0.85
0.93
1.01
1.10
1.14
1.09
0.91
0.59
0.18
-0.22
-0.50
-0.63
-0.58
-0.44
-0.28
-0.18
-0.14
-0.12
-0.06
0.09
0.28
0.43
0.44
0.27
-0.01
-0.29
-0.45
-0.47
-0.39
-0.30
-0.22
-0.14
0.01
0.23
0.46
0.55
0.40
0.03
-0.43
-0.80
-0.95
-0.87
-0.66
-0.46
-0.33
-0.29
-0.27
-0.26
-0.24
-0.24
-0.26
-0.27
-0.24
-0.15
-0.03
0.06
0.04
-0.09
-0.28
-0.45
-0.52
-0.44
-0.22
0.11
0.45
0.72
0.87
0.84
0.62
0.27
-0.13
-0.49
-0.73
-0.78
-0.68
-0.49
-0.31
-0.21
-0.21
-0.27
-0.35
-0.44
-0.57
-0.76
-1.05
-1.41
-1.77
-2.05
-2.20
-2.19
-2.06
-1.84
-1.57
-1.26
-0.93
-0.58
-0.25
0.03
0.24
0.33
0.26
0.03
-0.32
-0.70
-0.97
-0.99
-0.73
-0.22
0.39
0.94
1.31
1.47
1.46
1.37
1.25
1.15
1.05
0.96
0.90
0.92
0.99
1.08
1.10
0.98
0.71
0.37
0.08
-0.07
-0.05
0.13
0.38
0.65
0.94
1.23
1.48
1.67
1.72
1.61
1.37
1.08
0.87
0.80
0.91
1.15
1.45
1.73
1.96
2.12
2.21
2.20
2.05
1.72
1.21
0.56
-0.15
-0.80
-1.30
-1.59
-1.61
-1.41
-1.03
-0.56
-0.10
0.23
0.38
0.33
0.10
-0.20
-0.47
-0.62
-0.58
-0.35
-0.01
0.35
0.60
0.68
0.61
0.47
0.36
0.36
0.43
0.50
0.49
0.37
0.18
0.03
-0.03
0.01
0.09
0.12
0.05
-0.12
-0.34
-0.55
-0.70
-0.79
-0.83
-0.85
-0.86
-0.85
-0.80
-0.71
-0.56
-0.35
-0.10
0.16
0.41
0.61
0.74
0.80
0.79
0.74
0.67
0.59
0.53
0.45
0.30
0.04
-0.37
-0.85
-1.28
-1.54
-1.52
-1.24
-0.79
-0.35
-0.04
0.07
0.02
-0.15
-0.35
-0.54
-0.69
-0.77
-0.76
-0.65
-0.44
-0.18
0.04
0.17
0.15
0.02
-0.15
-0.26
-0.26
-0.14
0.05
0.23
0.35
0.37
0.30
0.18
0.06
-0.01
0.01
0.16
0.43
0.78
1.10
1.25
1.18
0.90
0.51
0.16
-0.07
-0.18
-0.23
-0.27
-0.35
-0.42
-0.44
-0.36
-0.21
-0.04
0.08
0.12
0.10
0.03
-0.03
-0.08
-0.10
-0.14
-0.20
-0.32
-0.49
-0.67
-0.81
-0.86
-0.74
-0.49
-0.16
0.13
0.27
0.23
0.06
-0.13
-0.27
-0.28
-0.20
-0.05
0.10
0.23
0.36
0.47
0.56
0.58
0.48
0.26
-0.03
-0.30
-0.44
-0.42
-0.27
-0.07
0.10
0.19
0.19
0.15
0.12
0.12
0.17
0.23
0.27
0.22
0.06
-0.24
-0.60
-0.93
-1.10
-1.02
-0.70
-0.27
0.12
0.33
0.31
0.10
-0.23
-0.62
-1.04
-1.46
-1.84
-2.07
-2.03
-1.65
-0.99
-0.19
0.53
0.97
1.04
0.80
0.39
0.02
-0.15
-0.07
0.19
0.45
0.55
0.38
0.00
-0.43
-0.70
-0.69
-0.40
0.03
0.42
0.62
0.60
0.41
0.15
-0.08
-0.26
-0.39
-0.50
-0.55
-0.49
-0.30
-0.02
0.21
0.25
0.05
-0.29
-0.47
-0.20
0.65
1.90
3.17
4.03
4.24
3.84
3.13
2.45
1.98
1.69
1.38
0.87
0.13
-0.67
-1.27
-1.49
-1.28
-0.82
-0.38
-0.20
-0.40
-0.89
-1.48
-1.93
-2.09
-1.93
-1.58
-1.19
-0.87
-0.69
-0.59
-0.47
-0.27
0.01
0.30
0.49
0.48
0.27
-0.09
-0.47
-0.78
-0.98
-1.05
-1.01
-0.88
-0.67
-0.39
-0.04
0.33
0.67
0.94
1.10
1.12
1.00
0.74
0.36
-0.06
-0.45
-0.76
-0.93
-0.95
-0.87
-0.75
-0.70
-0.75
-0.89
-1.03
-1.06
-0.91
-0.60
-0.22
0.07
0.18
0.11
-0.06
-0.21
-0.26
-0.18
-0.02
0.20
0.46
0.74
1.02
1.27
1.46
1.56
1.59
1.55
1.45
1.27
1.00
0.69
0.40
0.22
0.15
0.15
0.09
-0.13
-0.47
-0.83
-1.02
-0.95
-0.61
-0.13
0.33
0.63
0.71
0.58
0.30
-0.06
-0.41
-0.70
-0.88
-0.91
-0.81
-0.60
-0.35
-0.11
0.06
0.12
0.05
-0.16
-0.51
-0.91
-1.25
-1.43
-1.38
-1.12
-0.77
-0.46
-0.28
-0.25
-0.30
-0.33
-0.28
-0.15
-0.01
0.09
0.14
0.17
0.25
0.41
0.58
0.69
0.68
0.57
0.47
0.49
0.68
0.96
1.18
1.23
1.08
0.82
0.60
0.54
0.64
0.79
0.89
0.83
0.61
0.27
-0.14
-0.55
-0.91
-1.16
-1.26
-1.17
-0.91
-0.55
-0.20
0.05
0.17
0.16
0.05
-0.10
-0.26
-0.38
-0.40
-0.30
-0.10
0.10
0.21
0.16
-0.03
-0.29
-0.50
-0.63
-0.70
-0.78
-0.92
-1.10
-1.25
-1.26
-1.11
-0.81
-0.49
-0.22
-0.02
0.17
0.44
0.83
1.30
1.70
1.90
1.83
1.53
1.14
0.85
0.75
0.85
1.06
1.25
1.35
1.35
1.28
1.18
1.02
0.78
0.43
0.01
-0.35
-0.53
-0.44
-0.11
0.34
0.72
0.89
0.84
0.63
0.41
0.32
0.38
0.53
0.69
0.76
0.74
0.67
0.62
0.63
0.67
0.68
0.54
0.21
-0.29
-0.88
-1.40
-1.72
-1.78
-1.61
-1.35
-1.12
-0.99
-0.93
-0.85
-0.66
-0.33
0.06
0.38
0.52
0.45
0.23
-0.01
-0.18
-0.24
-0.23
-0.24
-0.31
-0.46
-0.63
-0.73
-0.69
-0.47
-0.12
0.30
0.65
0.86
0.87
0.69
0.36
-0.03
-0.39
-0.62
-0.65
-0.48
-0.14
0.27
0.64
0.89
1.00
0.98
0.87
0.74
0.62
0.52
0.45
0.41
0.40
0.43
0.49
0.54
0.51
0.35
0.00
-0.51
-1.10
-1.63
-1.93
-1.91
-1.59
-1.11
-0.65
-0.36
-0.29
-0.39
-0.49
-0.47
-0.28
0.02
0.30
0.41
0.31
0.06
-0.20
-0.38
-0.43
-0.42
-0.45
-0.58
-0.78
-0.97
-1.03
-0.90
-0.63
-0.31
-0.06
0.03
-0.02
-0.15
-0.24
-0.25
-0.17
-0.06
0.02
0.03
-0.01
-0.05
-0.08
-0.12
-0.24
-0.48
-0.80
-1.11
-1.27
-1.20
-0.92
-0.51
-0.05
0.37
0.74
1.08
1.37
1.61
1.74
1.78
1.73
1.67
1.67
1.73
1.84
1.92
1.90
1.71
1.35
0.89
0.43
0.08
-0.09
-0.07
0.04
0.14
0.12
-0.07
-0.42
-0.84
-1.23
-1.52
-1.67
-1.66
-1.53
-1.31
-1.07
-0.86
-0.72
-0.69
-0.74
-0.83
-0.88
-0.85
-0.71
-0.52
-0.38
-0.34
-0.42
-0.60
-0.81
-1.01
-1.19
-1.34
-1.45
-1.50
-1.48
-1.43
-1.42
-1.54
-1.79
-2.11
-2.35
-2.39
-2.22
-1.92
-1.60
-1.35
-1.22
-1.13
-1.03
-0.85
-0.54
-0.05
0.66
1.61
2.75
3.93
4.95
5.62
5.79
5.46
4.73
3.80
2.87
2.13
1.68
1.51
1.55
1.69
1.81
1.85
1.76
1.56
1.23
0.77
0.21
-0.39
-0.94
-1.34
-1.53
-1.51
-1.35
-1.16
-1.04
-1.03
-1.10
-1.15
-1.13
-1.01
-0.82
-0.62
-0.42
-0.24
-0.08
0.04
0.08
-0.02
-0.24
-0.52
-0.73
-0.75
-0.54
-0.18
0.19
0.43
0.46
0.33
0.16
0.06
0.08
0.17
0.26
0.26
0.17
0.04
-0.07
-0.11
-0.13
-0.18
-0.33
-0.55
-0.76
-0.87
-0.82
-0.68
-0.56
-0.51
-0.52
-0.51
-0.36
-0.05
0.33
0.63
0.74
0.63
0.40
0.23
0.28
0.62
1.22
1.93
2.58
3.03
3.21
3.14
2.89
2.51
2.08
1.64
1.20
0.84
0.60
0.51
0.52
0.55
0.46
0.19
-0.24
-0.71
-1.09
-1.30
-1.37
-1.35
-1.30
-1.22
-1.06
-0.80
-0.47
-0.20
-0.11
-0.25
-0.59
-0.96
-1.22
-1.29
-1.18
-0.98
-0.80
-0.67
-0.57
-0.45
-0.30
-0.15
-0.08
-0.15
-0.35
-0.62
-0.86
-0.98
-0.94
-0.78
-0.57
-0.39
-0.32
-0.38
-0.52
-0.65
-0.67
-0.55
-0.30
-0.04
0.10
0.05
-0.14
-0.35
-0.45
-0.38
-0.19
-0.03
-0.05
-0.29
-0.71
-1.15
-1.46
-1.56
-1.45
-1.23
-1.03
-0.92
-0.93
-1.01
-1.07
-1.04
-0.89
-0.68
-0.49
-0.43
-0.59
-0.94
-1.42
-1.89
-2.19
-2.21
-1.88
-1.21
-0.32
0.59
1.30
1.63
1.54
1.17
0.76
0.59
0.82
1.45
2.30
3.14
3.80
4.21
4.43
4.50
4.45
4.22
3.77
3.06
2.17
1.25
0.50
0.06
-0.00
0.25
0.63
0.92
0.91
0.54
-0.12
-0.83
-1.31
-1.37
-1.01
-0.41
0.12
0.34
0.16
-0.34
-0.91
-1.34
-1.47
-1.30
-0.93
-0.52
-0.18
0.03
0.09
0.04
-0.07
-0.21
-0.35
-0.52
-0.72
-0.92
-1.11
-1.22
-1.22
-1.11
-0.97
-0.85
-0.81
-0.86
-0.94
-0.98
-0.93
-0.81
-0.66
-0.50
-0.36
-0.20
-0.01
0.21
0.38
0.45
0.39
0.24
0.08
0.01
0.06
0.20
0.36
0.44
0.39
0.26
0.11
0.04
0.10
0.28
0.48
0.62
0.60
0.44
0.22
0.05
-0.01
0.03
0.07
0.01
-0.21
-0.56
-0.95
-1.28
-1.49
-1.58
-1.59
-1.55
-1.46
-1.32
-1.09
-0.78
-0.41
-0.02
0.32
0.59
0.77
0.90
1.03
1.17
1.34
1.48
1.56
1.55
1.49
1.41
1.36
1.37
1.40
1.40
1.33
1.17
0.95
0.69
0.41
0.15
-0.08
-0.29
-0.45
-0.56
-0.60
-0.56
-0.43
-0.22
0.01
0.18
0.22
0.12
-0.07
-0.27
-0.36
-0.32
-0.20
-0.07
-0.03
-0.09
-0.20
-0.30
-0.34
-0.33
-0.30
-0.30
-0.33
-0.39
-0.43
-0.41
-0.32
-0.16
0.01
0.14
0.18
0.10
-0.05
-0.19
-0.22
-0.05
0.29
0.69
0.99
1.07
0.90
0.57
0.21
-0.04
-0.16
-0.19
-0.20
-0.26
-0.38
-0.50
-0.53
-0.45
-0.26
-0.07
0.00
-0.11
-0.38
-0.70
-0.93
-0.97
-0.81
-0.54
-0.29
-0.17
-0.20
-0.30
-0.39
-0.43
-0.40
-0.35
-0.31
-0.25
-0.15
0.03
0.25
0.41
0.42
0.25
-0.03
-0.25
-0.28
-0.07
0.31
0.72
0.98
0.99
0.77
0.38
-0.07
-0.48
-0.79
-0.94
-0.96
-0.90
-0.82
-0.79
-0.81
-0.82
-0.75
-0.57
-0.32
-0.10
-0.01
-0.11
-0.36
-0.68
-0.95
-1.09
-1.05
-0.84
-0.51
-0.15
0.17
0.38
0.43
0.36
0.21
0.06
-0.03
-0.03
0.02
0.13
0.29
0.52
0.82
1.15
1.45
1.65
1.75
1.77
1.77
1.77
1.73
1.58
1.30
0.92
0.52
0.22
0.04
-0.03
-0.05
-0.09
-0.13
-0.17
-0.18
-0.17
-0.16
-0.19
-0.27
-0.41
-0.56
-0.67
-0.71
-0.63
-0.43
-0.14
0.17
0.42
0.51
0.44
0.24
0.02
-0.11
-0.11
0.01
0.14
0.19
0.08
-0.19
-0.53
-0.84
-1.03
-1.06
-0.96
-0.78
-0.58
-0.42
-0.32
-0.29
-0.33
-0.43
-0.55
-0.66
-0.74
-0.74
-0.67
-0.51
-0.28
-0.02
0.25
0.49
0.65
0.71
0.70
0.66
0.67
0.78
0.97
1.19
1.31
1.26
1.00
0.62
0.23
-0.03
-0.11
-0.06
0.02
0.05
-0.02
-0.16
-0.30
-0.37
-0.38
-0.36
-0.39
-0.48
-0.62
-0.72
-0.70
-0.52
-0.17
0.26
0.68
0.97
1.05
0.90
0.56
0.15
-0.23
-0.44
-0.44
-0.24
0.07
0.38
0.59
0.66
0.61
0.45
0.17
-0.24
-0.76
-1.32
-1.78
-2.04
-2.02
-1.79
-1.50
-1.30
-1.27
-1.40
-1.57
-1.68
-1.66
-1.51
-1.28
-1.01
-0.73
-0.49
-0.32
-0.23
-0.21
-0.20
-0.15
-0.03
0.12
0.25
0.30
0.29
0.27
0.34
0.50
0.71
0.89
0.99
1.01
0.99
0.99
1.02
1.07
1.12
1.14
1.13
1.08
0.99
0.85
0.63
0.37
0.12
-0.05
-0.09
-0.05
-0.00
-0.04
-0.22
-0.49
-0.74
-0.82
-0.63
-0.15
0.52
1.23
1.86
2.36
2.77
3.14
3.50
3.81
3.95
3.82
3.37
2.63
1.75
0.89
0.21
-0.22
-0.40
-0.45
-0.48
-0.59
-0.81
-1.07
-1.25
-1.28
-1.16
-0.95
-0.77
-0.70
-0.74
-0.84
-0.94
-0.97
-0.95
-0.90
-0.84
-0.78
-0.71
-0.65
-0.60
-0.57
-0.57
-0.57
-0.54
-0.44
-0.22
0.11
0.50
0.83
0.99
0.88
0.51
-0.03
-0.59
-1.00
-1.17
-1.11
-0.92
-0.73
-0.66
-0.71
-0.72
-0.48
0.17
1.20
2.38
3.35
3.78
3.58
2.88
1.98
1.16
0.58
0.20
-0.10
-0.44
-0.80
-1.11
-1.30
-1.31
-1.17
-0.97
-0.81
-0.80
-1.00
-1.42
-1.96
-2.47
-2.77
-2.72
-2.33
-1.71
-1.07
-0.59
-0.39
-0.43
-0.63
-0.84
-1.00
-1.09
-1.21
-1.46
-1.88
-2.44
-3.02
-3.47
-3.67
-3.59
-3.28
-2.86
-2.46
-2.14
-1.92
-1.71
-1.43
-0.99
-0.39
0.28
0.90
1.34
1.52
1.50
1.37
1.32
1.46
1.86
2.50
3.27
4.01
4.61
4.96
5.03
4.85
4.51
4.11
3.76
3.53
3.43
3.42
3.39
3.30
3.12
2.86
2.55
2.17
1.68
1.06
0.34
-0.36
-0.88
-1.08
-0.97
-0.69
-0.48
-0.49
-0.79
-1.28
-1.77
-2.08
-2.16
-2.04
-1.81
-1.56
-1.35
-1.16
-0.95
-0.68
-0.33
0.07
0.47
0.78
0.98
1.05
1.05
1.07
1.16
1.32
1.51
1.66
1.71
1.62
1.39
1.05
0.66
0.28
-0.05
-0.29
-0.46
-0.58
-0.67
-0.74
-0.78
-0.80
-0.84
-0.96
-1.21
-1.63
-2.12
-2.57
-2.82
-2.80
-2.53
-2.12
-1.66
-1.25
-0.87
-0.50
-0.12
0.23
0.49
0.60
0.57
0.46
0.38
0.39
0.50
0.64
0.76
0.80
0.78
0.73
0.74
0.85
1.08
1.43
1.81
2.12
2.25
2.12
1.75
1.25
0.79
0.51
0.46
0.60
0.78
0.87
0.74
0.38
-0.17
-0.81
-1.43
-1.94
-2.28
-2.48
-2.59
-2.67
-2.76
-2.83
-2.77
-2.50
-2.01
-1.39
-0.76
-0.23
0.19
0.56
0.95
1.39
1.78
1.97
1.82
1.34
0.63
-0.08
-0.59
-0.78
-0.68
-0.40
-0.11
0.04
-0.04
-0.35
-0.79
-1.22
-1.50
-1.56
-1.41
-1.16
-0.94
-0.86
-0.94
-1.16
-1.43
-1.69
-1.88
-2.00
-2.03
-1.95
-1.75
-1.45
-1.08
-0.71
-0.37
-0.07
0.22
0.51
0.82
1.12
1.41
1.71
2.03
2.37
2.69
2.88
2.82
2.46
1.84
1.12
0.48
0.05
-0.17
-0.30
-0.50
-0.88
-1.41
-1.95
-2.29
-2.34
-2.14
-1.84
-1.62
-1.59
-1.73
-1.94
-2.13
-2.28
-2.46
-2.72
-3.06
-3.36
-3.44
-3.12
-2.33
-1.10
0.43
2.08
3.66
5.05
6.15
6.93
7.37
7.45
7.16
6.48
5.44
4.15
2.73
1.36
0.16
-0.80
-1.50
-1.95
-2.21
-2.33
-2.40
-2.50
-2.65
-2.83
-2.95
-2.94
-2.81
-2.63
-2.55
-2.65
-2.92
-3.24
-3.51
-3.64
-3.62
-3.46
-3.11
-2.49
-1.49
-0.08
1.64
3.46
5.14
6.46
7.35
7.75
7.68
7.14
6.17
4.86
3.39
1.96
0.76
-0.11
-0.67
-1.01
-1.21
-1.34
-1.44
-1.52
-1.60
-1.71
-1.88
-2.10
-2.36
-2.62
-2.85
-3.02
-3.12
-3.13
-3.03
-2.86
-2.65
-2.46
-2.33
-2.20
-1.97
-1.50
-0.69
0.48
1.95
3.58
5.22
6.72
7.91
8.65
8.82
8.32
7.22
5.69
3.99
2.38
1.05
0.05
-0.67
-1.17
-1.50
-1.68
-1.69
-1.60
-1.50
-1.47
-1.58
-1.79
-2.00
-2.13
-2.12
-2.02
-1.89
-1.83
-1.86
-1.96
-2.05
-2.06
-1.92
-1.66
-1.34
-1.07
-0.93
-0.97
-1.14
-1.33
-1.46
-1.46
-1.35
-1.17
-0.97
-0.79
-0.63
-0.48
-0.35
-0.24
-0.22
-0.31
-0.53
-0.83
-1.14
-1.38
-1.50
-1.52
-1.49
-1.46
-1.43
-1.28
-0.93
-0.30
0.58
1.57
2.51
3.28
3.83
4.20
4.44
4.58
4.60
4.45
4.06
3.43
2.62
1.73
0.89
0.18
-0.33
-0.60
-0.64
-0.46
-0.15
0.19
0.42
0.41
0.11
-0.43
-1.05
-1.53
-1.75
-1.67
-1.38
-1.02
-0.71
-0.55
-0.54
-0.67
-0.89
-1.14
-1.30
-1.28
-1.03
-0.58
-0.08
0.29
0.38
0.17
-0.27
-0.76
-1.18
-1.42
-1.47
-1.36
-1.14
-0.88
-0.62
-0.37
-0.11
0.16
0.41
0.59
0.62
0.50
0.29
0.16
0.25
0.59
1.03
1.36
1.40
1.13
0.70
0.34
0.21
0.32
0.51
0.57
0.40
0.02
-0.41
-0.71
-0.82
-0.77
-0.70
-0.70
-0.76
-0.80
-0.70
-0.43
-0.06
0.21
0.23
-0.06
-0.55
-1.07
-1.41
-1.51
-1.41
-1.24
-1.16
-1.23
-1.43
-1.67
-1.80
-1.69
-1.25
-0.50
0.44
1.38
2.10
2.47
2.46
2.16
1.68
1.16
0.70
0.36
0.20
0.23
0.43
0.70
0.94
1.03
0.92
0.63
0.25
-0.12
-0.39
-0.53
-0.53
-0.40
-0.18
0.08
0.28
0.37
0.29
0.05
-0.29
-0.68
-1.03
-1.29
-1.41
-1.37
-1.16
-0.81
-0.42
-0.11
0.02
-0.07
-0.34
-0.66
-0.90
-0.92
-0.63
-0.06
0.70
1.47
2.06
2.32
2.21
1.82
1.34
0.95
0.79
0.83
0.96
1.06
1.06
0.94
0.75
0.51
0.26
0.00
-0.23
-0.37
-0.37
-0.21
0.03
0.26
0.37
0.30
0.10
-0.16
-0.37
-0.51
-0.58
-0.60
-0.56
-0.44
-0.18
0.22
0.70
1.13
1.36
1.32
1.01
0.51
-0.05
-0.56
-0.94
-1.18
-1.25
-1.18
-1.00
-0.73
-0.45
-0.24
-0.18
-0.32
-0.63
-1.00
-1.30
-1.42
-1.31
-1.00
-0.59
-0.20
0.10
0.27
0.33
0.30
0.20
0.08
-0.04
-0.13
-0.17
-0.20
-0.27
-0.44
-0.70
-0.96
-1.12
-1.10
-0.91
-0.64
-0.39
-0.24
-0.19
-0.16
-0.11
-0.00
0.12
0.21
0.25
0.28
0.34
0.48
0.71
0.95
1.10
1.10
0.93
0.70
0.50
0.48
0.62
0.87
1.07
1.13
1.01
0.75
0.44
0.12
-0.18
-0.48
-0.76
-0.98
-1.07
-1.02
-0.91
-0.82
-0.83
-0.91
-0.94
-0.77
-0.37
0.19
0.71
0.96
0.86
0.44
-0.11
-0.62
-0.94
-1.08
-1.07
-0.98
-0.81
-0.55
-0.15
0.37
0.93
1.45
1.81
1.93
1.82
1.53
1.17
0.87
0.74
0.83
1.11
1.45
1.72
1.78
1.59
1.21
0.78
0.42
0.19
0.05
-0.08
-0.30
-0.60
-0.91
-1.13
-1.16
-1.01
-0.74
-0.51
-0.40
-0.46
-0.62
-0.79
-0.89
-0.92
-0.89
-0.86
-0.86
-0.88
-0.94
-1.08
-1.32
-1.64
-1.99
-2.23
-2.22
-1.86
-1.18
-0.30
0.57
1.24
1.61
1.67
1.51
1.23
0.94
0.70
0.51
0.36
0.24
0.17
0.18
0.28
0.45
0.61
0.62
0.42
0.01
-0.54
-1.11
-1.58
-1.90
-2.08
-2.09
-1.90
-1.47
-0.77
0.11
0.98
1.66
1.99
1.94
1.62
1.19
0.79
0.50
0.33
0.27
0.28
0.34
0.42
0.52
0.62
0.73
0.83
0.90
0.93
0.87
0.74
0.60
0.52
0.59
0.84
1.18
1.47
1.57
1.41
1.04
0.64
0.38
0.35
0.51
0.74
0.91
0.94
0.90
0.88
0.95
1.10
1.23
1.17
0.85
0.25
-0.50
-1.24
-1.80
-2.09
-2.12
-1.99
-1.82
-1.72
-1.74
-1.83
-1.90
-1.87
-1.68
-1.36
-1.00
-0.69
-0.49
-0.44
-0.47
-0.55
-0.62
-0.69
-0.79
-0.96
-1.18
-1.39
-1.47
-1.34
-0.97
-0.46
0.03
0.38
0.50
0.44
0.34
0.31
0.45
0.72
1.02
1.27
1.41
1.48
1.52
1.55
1.52
1.37
1.06
0.63
0.16
-0.24
-0.50
-0.62
-0.63
-0.57
-0.48
-0.38
-0.30
-0.30
-0.39
-0.58
-0.83
-1.11
-1.39
-1.65
-1.89
-2.05
-2.10
-2.04
-1.91
-1.79
-1.76
-1.82
-1.92
-1.96
-1.90
-1.75
-1.62
-1.61
-1.77
-2.06
-2.40
-2.73
-2.96
-3.08
-3.08
-2.99
-2.80
-2.58
-2.39
-2.29
-2.33
-2.51
-2.78
-3.04
-3.22
-3.30
-3.30
-3.26
-3.19
-3.07
-2.87
-2.57
-2.19
-1.79
-1.41
-1.07
-0.75
-0.43
-0.07
0.36
0.84
1.36
1.91
2.43
2.87
3.19
3.37
3.45
3.48
3.49
3.54
3.61
3.72
3.86
4.07
4.32
4.55
4.69
4.64
4.39
4.02
3.67
3.46
3.46
3.64
3.84
3.93
3.80
3.46
3.02
2.56
2.17
1.87
1.65
1.51
1.49
1.59
1.79
2.01
2.13
2.07
1.79
1.35
0.86
0.47
0.29
0.37
0.68
1.13
1.57
1.89
2.02
1.98
1.80
1.56
1.30
1.04
0.77
0.51
0.27
0.06
-0.12
-0.29
-0.52
-0.83
-1.23
-1.63
-1.95
-2.13
-2.12
-1.94
-1.66
-1.35
-1.09
-0.92
-0.88
-0.95
-1.09
-1.27
-1.42
-1.54
-1.61
-1.67
-1.72
-1.75
-1.71
-1.54
-1.23
-0.84
-0.51
-0.37
-0.49
-0.81
-1.17
-1.40
-1.41
-1.23
-0.97
-0.75
-0.66
-0.67
-0.69
-0.68
-0.60
-0.49
-0.41
-0.38
-0.35
-0.29
-0.15
0.07
0.30
0.50
0.61
0.63
0.61
0.61
0.64
0.69
0.66
0.49
0.15
-0.26
-0.58
-0.62
-0.26
0.52
1.60
2.75
3.78
4.52
4.93
5.08
5.09
5.03
4.94
4.78
4.47
3.97
3.33
2.64
2.04
1.62
1.38
1.25
1.12
0.94
0.66
0.29
-0.14
-0.61
-1.11
-1.60
-2.05
-2.38
-2.53
-2.47
-2.21
-1.81
-1.38
-1.07
-0.99
-1.18
-1.57
-2.01
-2.32
-2.38
-2.19
-1.82
-1.45
-1.19
-1.12
-1.22
-1.42
-1.66
-1.89
-2.10
-2.25
-2.31
-2.23
-1.98
-1.58
-1.10
-0.70
-0.52
-0.63
-1.00
-1.46
-1.76
-1.73
-1.32
-0.65
0.09
0.74
1.23
1.61
1.95
2.32
2.67
2.89
2.91
2.74
2.42
2.08
1.77
1.49
1.26
1.08
0.96
0.92
0.94
1.00
1.04
1.02
0.94
0.80
0.61
0.37
0.12
-0.11
-0.31
-0.47
-0.63
-0.83
-1.07
-1.30
-1.46
-1.49
-1.40
-1.24
-1.12
-1.10
-1.19
-1.35
-1.55
-1.76
-1.99
-2.26
-2.57
-2.90
-3.22
-3.50
-3.71
-3.83
-3.84
-3.75
-3.57
-3.36
-3.14
-2.96
-2.80
-2.64
-2.46
-2.29
-2.12
-2.00
-1.89
-1.71
-1.39
-0.93
-0.39
0.09
0.35
0.31
-0.01
-0.46
-0.86
-1.06
-1.00
-0.79
-0.60
-0.63
-0.99
-1.67
-2.52
-3.35
-3.98
-4.37
-4.56
-4.68
-4.86
-5.15
-5.55
-6.02
-6.47
-6.89
-7.26
-7.56
-7.75
-7.76
-7.56
-7.20
-6.81
-6.53
-6.49
-6.65
-6.89
-6.99
-6.79
-6.22
-5.30
-4.08
-2.53
-0.54
2.03
5.26
9.03
13.08
17.06
20.73
23.99
26.93
29.63
32.07
33.99
35.01
34.76
33.07
30.09
26.24
22.02
17.84
13.92
10.26
6.82
3.58
0.68
-1.66
-3.23
-3.97
-4.04
-3.73
-3.34
-3.05
-2.85
-2.59
-2.14
-1.49
-0.71
0.10
0.88
1.66
2.40
2.84
2.59
1.24
-1.34
-4.82
-8.50
-11.58
-13.50
-14.18
-13.97
-13.38
-12.88
-12.69
-12.78
-13.00
-13.22
-13.33
-13.31
-13.18
-12.96
-12.63
-12.06
-11.09
-9.56
-7.43
-4.88
-2.25
0.02
1.62
2.44
2.64
2.49
2.22
1.96
1.68
1.30
0.80
0.25
-0.19
-0.36
-0.19
0.29
0.95
1.62
2.14
2.43
2.49
2.42
2.31
2.25
2.24
2.22
2.07
1.72
1.12
0.33
-0.58
-1.51
-2.38
-3.17
-3.88
-4.48
-4.91
-5.10
-5.00
-4.65
-4.15
-3.63
-3.20
-2.90
-2.75
-2.71
-2.72
-2.69
-2.55
-2.20
-1.56
-0.63
0.55
1.82
3.03
4.09
4.96
5.73
6.51
7.36
8.26
9.12
9.81
10.22
10.32
10.16
9.88
9.57
9.28
8.96
8.50
7.74
6.67
5.38
4.12
3.15
2.65
2.61
2.90
3.38
3.98
4.73
5.71
6.83
7.85
8.39
8.12
6.93
5.05
2.92
1.06
-0.14
-0.54
-0.24
0.51
1.45
2.40
3.25
3.91
4.24
4.12
3.44
2.26
0.81
-0.56
-1.56
-2.06
-2.24
-2.39
-2.77
-3.42
-4.11
-4.53
-4.45
-3.92
-3.27
-2.88
-3.02
-3.71
-4.69
-5.60
-6.14
-6.20
-5.87
-5.32
-4.73
-4.19
-3.72
-3.25
-2.75
-2.25
-1.83
-1.60
-1.61
-1.89
-2.35
-2.87
-3.30
-3.53
-3.54
-3.36
-3.09
-2.86
-2.75
-2.77
-2.89
-2.99
-3.01
-2.94
-2.82
-2.71
-2.63
-2.53
-2.32
-1.93
-1.32
-0.57
0.21
0.88
1.37
1.62
1.65
1.47
1.10
0.61
0.08
-0.39
-0.72
-0.88
-0.92
-0.91
-0.90
-0.91
-0.91
-0.86
-0.77
-0.67
-0.64
-0.73
-0.93
-1.17
-1.35
-1.39
-1.30
-1.14
-0.97
-0.88
-0.87
-0.92
-0.95
-0.89
-0.72
-0.46
-0.17
0.07
0.19
0.17
0.06
-0.09
-0.21
-0.30
-0.40
-0.55
-0.79
-1.07
-1.33
-1.48
-1.49
-1.39
-1.24
-1.13
-1.05
-0.92
-0.68
-0.27
0.24
0.71
0.97
0.92
0.61
0.22
-0.05
-0.08
0.12
0.42
0.64
0.68
0.58
0.45
0.43
0.55
0.75
0.89
0.86
0.64
0.32
0.05
-0.04
0.11
0.41
0.70
0.82
0.69
0.34
-0.12
-0.54
-0.84
-1.03
-1.17
-1.36
-1.63
-1.97
-2.29
-2.50
-2.56
-2.50
-2.39
-2.28
-2.19
-2.11
-1.93
-1.55
-0.91
-0.02
1.03
2.05
2.85
3.31
3.39
3.15
2.74
2.29
1.93
1.73
1.72
1.88
2.14
2.39
2.50
2.36
1.95
1.36
0.75
0.30
0.12
0.21
0.46
0.76
0.99
1.12
1.15
1.13
1.05
0.92
0.73
0.50
0.24
-0.02
-0.28
-0.55
-0.86
-1.18
-1.45
-1.60
-1.59
-1.45
-1.25
-1.11
-1.10
-1.22
-1.40
-1.54
-1.59
-1.51
-1.36
-1.17
-0.98
-0.82
-0.71
-0.63
-0.60
-0.59
-0.56
-0.49
-0.37
-0.22
-0.09
-0.04
-0.09
-0.22
-0.40
-0.58
-0.74
-0.88
-1.01
-1.13
-1.21
-1.21
-1.11
-0.90
-0.63
-0.37
-0.17
-0.05
-0.01
0.02
0.05
0.07
0.08
0.08
0.10
0.19
0.37
0.64
0.93
1.16
1.27
1.24
1.09
0.84
0.54
0.26
0.06
0.00
0.12
0.35
0.60
0.75
0.77
0.65
0.47
0.31
0.24
0.28
0.41
0.62
0.88
1.14
1.33
1.40
1.33
1.16
0.94
0.74
0.57
0.41
0.23
-0.02
-0.32
-0.64
-0.89
-1.03
-1.01
-0.86
-0.62
-0.36
-0.13
0.06
0.21
0.34
0.44
0.44
0.31
0.01
-0.41
-0.86
-1.23
-1.43
-1.44
-1.30
-1.05
-0.76
-0.44
-0.12
0.21
0.50
0.74
0.92
1.06
1.21
1.44
1.77
2.19
2.65
3.08
3.44
3.70
3.83
3.83
3.65
3.29
2.75
2.08
1.37
0.73
0.29
0.11
0.20
0.44
0.69
0.78
0.61
0.21
-0.28
-0.67
-0.83
-0.77
-0.62
-0.54
-0.66
-0.96
-1.30
-1.54
-1.59
-1.47
-1.27
-1.06
-0.91
-0.80
-0.68
-0.54
-0.41
-0.35
-0.38
-0.49
-0.59
-0.58
-0.43
-0.17
0.08
0.24
0.25
0.16
0.08
0.09
0.22
0.42
0.59
0.66
0.62
0.51
0.37
0.21
0.00
-0.25
-0.51
-0.69
-0.70
-0.54
-0.28
-0.04
0.06
0.02
-0.10
-0.24
-0.33
-0.42
-0.54
-0.71
-0.90
-1.03
-1.05
-0.96
-0.77
-0.54
-0.31
-0.11
0.02
0.05
-0.02
-0.14
-0.26
-0.31
-0.25
-0.12
0.06
0.26
0.51
0.84
1.23
1.61
1.79
1.63
1.07
0.22
-0.65
-1.25
-1.40
-1.11
-0.57
-0.06
0.25
0.31
0.24
0.19
0.23
0.31
0.34
0.22
-0.02
-0.25
-0.34
-0.21
0.05
0.31
0.43
0.34
0.07
-0.25
-0.49
-0.56
-0.46
-0.24
0.00
0.21
0.37
0.53
0.75
1.05
1.37
1.59
1.61
1.40
1.05
0.73
0.61
0.72
1.00
1.27
1.36
1.17
0.76
0.28
-0.12
-0.34
-0.43
-0.50
-0.67
-0.94
-1.20
-1.25
-0.95
-0.31
0.51
1.24
1.68
1.71
1.39
0.84
0.21
-0.43
-1.01
-1.50
-1.88
-2.12
-2.27
-2.39
-2.51
-2.65
-2.76
-2.78
-2.69
-2.52
-2.33
-2.17
-2.01
-1.82
-1.56
-1.24
-0.90
-0.57
-0.26
0.11
0.59
1.17
1.74
2.15
2.28
2.14
1.84
1.50
1.24
1.07
0.95
0.86
0.82
0.86
0.98
1.15
1.24
1.18
0.93
0.63
0.44
0.52
0.89
1.42
1.91
2.16
2.09
1.75
1.30
0.89
0.59
0.40
0.25
0.06
-0.18
-0.44
-0.66
-0.80
-0.90
-0.99
-1.13
-1.29
-1.39
-1.34
-1.09
-0.66
-0.18
0.22
0.44
0.45
0.31
0.08
-0.17
-0.42
-0.68
-0.97
-1.29
-1.58
-1.80
-1.90
-1.88
-1.75
-1.54
-1.22
-0.80
-0.28
0.30
0.84
1.21
1.36
1.29
1.08
0.84
0.63
0.45
0.27
0.09
-0.08
-0.16
-0.11
0.05
0.24
0.33
0.23
-0.04
-0.41
-0.72
-0.82
-0.67
-0.31
0.09
0.35
0.36
0.13
-0.22
-0.52
-0.62
-0.49
-0.22
0.06
0.22
0.21
0.04
-0.20
-0.44
-0.65
-0.82
-0.99
-1.18
-1.37
-1.51
-1.55
-1.43
-1.15
-0.80
-0.49
-0.30
-0.25
-0.26
-0.20
0.01
0.38
0.80
1.11
1.19
0.98
0.57
0.09
-0.31
-0.53
-0.55
-0.42
-0.20
0.02
0.20
0.33
0.39
0.41
0.38
0.30
0.16
-0.03
-0.24
-0.45
-0.60
-0.67
-0.64
-0.52
-0.33
-0.09
0.18
0.43
0.62
0.70
0.66
0.50
0.27
-0.00
-0.26
-0.46
-0.54
-0.47
-0.24
0.08
0.34
0.43
0.26
-0.11
-0.49
-0.67
-0.52
-0.06
0.55
1.07
1.32
1.23
0.92
0.55
0.27
0.15
0.16
0.19
0.15
0.05
-0.05
-0.05
0.09
0.32
0.53
0.61
0.53
0.37
0.23
0.20
0.25
0.30
0.27
0.15
-0.03
-0.15
-0.18
-0.13
-0.04
0.01
0.00
-0.06
-0.14
-0.20
-0.24
-0.27
-0.31
-0.36
-0.42
-0.45
-0.41
-0.29
-0.06
0.20
0.43
0.51
0.42
0.19
-0.08
-0.29
-0.37
-0.35
-0.29
-0.28
-0.33
-0.42
-0.48
-0.44
-0.32
-0.13
0.05
0.19
0.26
0.26
0.20
0.07
-0.13
-0.35
-0.52
-0.56
-0.43
-0.16
0.13
0.27
0.16
-0.18
-0.60
-0.91
-0.96
-0.71
-0.27
0.17
0.43
0.44
0.21
-0.15
-0.51
-0.80
-1.00
-1.12
-1.13
-1.02
-0.77
-0.38
0.05
0.42
0.61
0.60
0.42
0.17
-0.06
-0.17
-0.15
-0.00
0.22
0.43
0.57
0.59
0.49
0.30
0.12
0.00
-0.02
0.04
0.10
0.11
0.04
-0.13
-0.37
-0.67
-1.01
-1.36
-1.73
-2.12
-2.57
-3.04
-3.52
-3.91
-4.13
-4.15
-3.96
-3.68
-3.49
-3.54
-3.90
-4.54
-5.31
-6.06
-6.66
-7.12
-7.48
-7.83
-8.25
-8.81
-9.59
-10.61
-11.78
-12.79
-13.15
-12.36
-10.13
-6.66
-2.60
1.18
3.93
5.38
5.72
5.43
4.95
4.47
3.88
3.03
1.87
0.59
-0.51
-1.19
-1.44
-1.47
-1.61
-2.09
-2.97
-4.06
-5.03
-5.57
-5.53
-4.98
-4.23
-3.73
-3.90
-5.03
-7.16
-10.14
-13.69
-17.45
-21.11
-24.46
-27.43
-30.12
-32.76
-35.65
-39.02
-42.86
-46.92
-50.75
-53.88
-56.00
-57.07
-57.30
-57.08
-56.86
-57.01
-57.68
-58.64
-59.02
-57.33
-51.80
-41.10
-25.12
-5.29
15.64
34.61
49.27
58.80
63.91
66.13
67.05
67.63
68.20
68.75
69.37
70.43
72.34
75.23
78.65
81.71
83.38
82.92
80.29
76.14
71.64
68.02
66.15
66.24
67.83
70.00
71.80
72.57
72.19
70.97
69.55
68.52
68.31
69.19
71.36
74.80
78.85
81.93
81.54
75.12
61.23
40.55
15.95
-8.43
-28.83
-43.15
-51.46
-55.28
-56.43
-56.15
-54.83
-52.57
-49.71
-47.09
-45.70
-46.11
-48.09
-50.73
-52.88
-53.71
-52.96
-51.08
-48.80
-46.76
-45.21
-43.94
-42.47
-40.38
-37.49
-33.97
-30.25
-26.76
-23.82
-21.50
-19.70
-18.21
-16.84
-15.48
-14.13
-12.84
-11.63
-10.50
-9.42
-8.34
-7.27
-6.26
-5.35
-4.56
-3.85
-3.14
-2.36
-1.53
-0.75
-0.12
0.31
0.54
0.64
0.69
0.79
0.97
1.29
1.77
2.40
3.11
3.75
4.15
4.19
3.82
3.18
2.44
1.84
1.53
1.55
1.84
2.24
2.54
2.57
2.22
1.49
0.53
-0.45
-1.20
-1.50
-1.28
-0.67
0.09
0.67
0.86
0.61
0.04
-0.63
-1.22
-1.64
-1.94
-2.28
-2.80
-3.56
-4.49
-5.42
-6.13
-6.47
-6.43
-6.19
-6.05
-6.39
-7.45
-9.21
-11.34
-13.31
-14.53
-14.64
-13.62
-11.82
-9.88
-8.42
-7.83
-8.01
-8.37
-8.06
-6.14
-1.96
4.71
13.47
23.21
32.24
38.57
40.59
37.58
30.20
20.25
10.12
1.84
-3.59
-6.34
-7.37
-7.74
-8.05
-8.31
-8.19
-7.40
-6.01
-4.31
-2.66
-1.27
-0.03
1.29
2.91
4.83
6.77
8.30
9.02
8.79
7.75
6.27
4.79
3.54
2.52
1.56
0.47
-0.77
-1.98
-2.88
-3.25
-3.07
-2.53
-1.95
-1.62
-1.67
-2.07
-2.63
-3.13
-3.40
-3.34
-3.03
-2.64
-2.39
-2.44
-2.83
-3.43
-3.97
-4.24
-4.14
-3.74
-3.23
-2.70
-2.14
-1.37
-0.21
1.33
3.05
4.58
5.57
5.85
5.49
4.72
3.82
2.96
2.20
1.50
0.83
0.17
-0.44
-0.92
-1.17
-1.18
-1.00
-0.72
-0.49
-0.44
-0.61
-0.97
-1.41
-1.79
-2.04
-2.18
-2.29
-2.46
-2.76
-3.14
-3.51
-3.78
-3.91
-3.97
-4.07
-4.31
-4.68
-5.09
-5.40
-5.50
-5.35
-4.98
-4.47
-3.84
-3.06
-2.10
-0.92
0.43
1.87
3.29
4.60
5.74
6.67
7.40
7.94
8.29
8.43
8.34
7.98
7.35
6.50
5.53
4.57
3.72
3.03
2.50
2.11
1.81
1.58
1.39
1.20
0.98
0.68
0.31
-0.06
-0.36
-0.54
-0.59
-0.56
-0.49
-0.40
-0.29
-0.16
-0.03
0.07
0.07
-0.08
-0.35
-0.68
-0.95
-1.11
-1.14
-1.12
-1.13
-1.24
-1.46
-1.71
-1.94
-2.07
-2.10
-2.08
-2.04
-2.00
-1.94
-1.83
-1.69
-1.57
-1.54
-1.63
-1.78
-1.88
-1.80
-1.46
-0.91
-0.30
0.18
0.40
0.32
0.03
-0.33
-0.63
-0.81
-0.89
-0.93
-0.98
-1.05
-1.12
-1.15
-1.12
-1.05
-0.97
-0.92
-0.91
-0.94
-0.96
-0.94
-0.84
-0.68
-0.47
-0.29
-0.16
-0.10
-0.03
0.11
0.40
0.82
1.27
1.62
1.75
1.59
1.19
0.67
0.15
-0.26
-0.49
-0.54
-0.45
-0.28
-0.12
-0.03
-0.07
-0.25
-0.51
-0.82
-1.11
-1.33
-1.49
-1.63
-1.80
-2.04
-2.29
-2.43
-2.27
-1.69
-0.65
0.71
2.11
3.26
3.95
4.12
3.88
3.41
2.89
2.46
2.14
1.86
1.54
1.11
0.59
0.02
-0.49
-0.89
-1.11
-1.18
-1.12
-0.98
-0.79
-0.59
-0.40
-0.24
-0.14
-0.14
-0.27
-0.53
-0.88
-1.21
-1.43
-1.43
-1.19
-0.77
-0.28
0.14
0.40
0.46
0.32
0.05
-0.26
-0.53
-0.66
-0.60
-0.38
-0.06
0.22
0.35
0.28
0.05
-0.24
-0.50
-0.66
-0.71
-0.67
-0.55
-0.36
-0.10
0.18
0.46
0.65
0.71
0.62
0.44
0.21
0.01
-0.13
-0.23
-0.30
-0.37
-0.49
-0.67
-0.92
-1.21
-1.48
-1.62
-1.54
-1.22
-0.76
-0.30
-0.02
-0.02
-0.28
-0.69
-1.08
-1.29
-1.22
-0.84
-0.23
0.50
1.20
1.76
2.12
2.27
2.26
2.17
2.05
1.94
1.89
1.88
1.94
2.04
2.16
2.26
2.29
2.21
1.96
1.53
0.96
0.32
-0.25
-0.65
-0.80
-0.72
-0.51
-0.32
-0.23
-0.26
-0.35
-0.43
-0.46
-0.46
-0.47
-0.54
-0.67
-0.83
-0.95
-0.98
-0.90
-0.73
-0.54
-0.35
-0.19
-0.04
0.09
0.17
0.15
-0.03
-0.33
-0.68
-0.93
-1.00
-0.89
-0.69
-0.53
-0.49
-0.52
-0.51
-0.38
-0.13
0.09
0.13
-0.10
-0.51
-0.91
-1.08
-0.95
-0.60
-0.24
-0.02
-0.02
-0.12
-0.14
0.05
0.44
0.90
1.21
1.23
0.95
0.48
-0.02
-0.41
-0.64
-0.73
-0.75
-0.73
-0.71
-0.68
-0.66
-0.64
-0.64
-0.65
-0.67
-0.71
-0.77
-0.82
-0.86
-0.85
-0.83
-0.85
-0.97
-1.23
-1.61
-2.02
-2.35
-2.54
-2.62
-2.66
-2.73
-2.83
-2.92
-2.93
-2.84
-2.71
-2.67
-2.80
-3.11
-3.54
-3.94
-4.19
-4.20
-3.94
-3.44
-2.69
-1.64
-0.27
1.41
3.33
5.30
7.15
8.72
9.95
10.85
11.45
11.72
11.57
10.93
9.81
8.39
6.92
5.63
4.66
3.96
3.42
2.90
2.34
1.75
1.19
0.69
0.22
-0.24
-0.73
-1.22
-1.70
-2.14
-2.51
-2.78
-2.90
-2.86
-2.67
-2.38
-2.12
-2.00
-2.07
-2.28
-2.52
-2.65
-2.57
-2.27
-1.81
-1.31
-0.90
-0.68
-0.69
-0.91
-1.28
-1.67
-1.97
-2.08
-1.98
-1.71
-1.39
-1.17
-1.09
-1.13
-1.18
-1.15
-0.99
-0.77
-0.60
-0.57
-0.67
-0.82
-0.92
-0.90
-0.78
-0.67
-0.62
-0.61
-0.55
-0.33
0.09
0.64
1.16
1.47
1.50
1.28
0.93
0.60
0.36
0.23
0.17
0.17
0.25
0.44
0.77
1.19
1.57
1.75
1.63
1.20
0.58
-0.03
-0.49
-0.72
-0.76
-0.72
-0.70
-0.75
-0.84
-0.87
-0.73
-0.39
0.11
0.64
1.05
1.21
1.10
0.79
0.42
0.11
-0.07
-0.17
-0.26
-0.38
-0.53
-0.62
-0.60
-0.46
-0.27
-0.15
-0.16
-0.32
-0.55
-0.70
-0.68
-0.47
-0.15
0.16
0.33
0.32
0.16
-0.05
-0.21
-0.25
-0.17
-0.01
0.16
0.28
0.32
0.27
0.17
0.07
0.02
0.04
0.13
0.27
0.41
0.48
0.46
0.33
0.12
-0.12
-0.33
-0.48
-0.54
-0.53
-0.48
-0.46
-0.47
-0.51
-0.53
-0.48
-0.35
-0.18
-0.06
-0.02
-0.08
-0.16
-0.21
-0.20
-0.17
-0.17
-0.23
-0.32
-0.36
-0.30
-0.15
0.03
0.17
0.23
0.22
0.20
0.21
0.23
0.21
0.10
-0.05
-0.17
-0.17
-0.05
0.12
0.23
0.16
-0.12
-0.52
-0.95
-1.31
-1.55
-1.66
-1.66
-1.55
-1.35
-1.06
-0.69
-0.28
0.15
0.55
0.89
1.13
1.24
1.19
1.01
0.75
0.45
0.17
-0.07
-0.29
-0.52
-0.83
-1.19
-1.57
-1.88
-2.04
-2.00
-1.82
-1.59
-1.44
-1.46
-1.64
-1.91
-2.12
-2.18
-2.01
-1.66
-1.18
-0.68
-0.20
0.22
0.60
0.92
1.17
1.31
1.31
1.18
0.95
0.69
0.45
0.24
0.02
-0.24
-0.57
-0.95
-1.31
-1.60
-1.81
-1.91
-1.94
-1.88
-1.73
-1.49
-1.20
-0.90
-0.63
-0.40
-0.20
-0.01
0.18
0.34
0.43
0.46
0.47
0.50
0.56
0.61
0.55
0.31
-0.09
-0.58
-1.02
-1.30
-1.42
-1.42
-1.37
-1.33
-1.27
-1.15
-0.91
-0.52
0.03
0.75
1.63
2.67
3.81
4.99
6.11
7.11
7.94
8.56
8.93
8.99
8.70
8.03
7.06
5.94
4.87
4.05
3.55
3.32
3.20
2.99
2.57
1.96
1.30
0.76
0.44
0.28
0.12
-0.27
-1.01
-2.03
-3.11
-4.00
-4.57
-4.86
-5.06
-5.38
-5.87
-6.40
-6.71
-6.57
-5.89
-4.84
-3.70
-2.74
-2.08
-1.67
-1.34
-0.97
-0.51
-0.05
0.34
0.65
0.96
1.43
2.10
2.90
3.61
3.98
3.88
3.32
2.52
1.71
1.11
0.80
0.77
0.93
1.20
1.50
1.78
1.99
2.07
2.01
1.82
1.56
1.32
1.14
1.03
0.96
0.93
0.97
1.14
1.45
1.81
2.03
1.89
1.21
0.01
-1.60
-3.37
-5.06
-6.47
-7.46
-7.93
-7.82
-7.14
-6.00
-4.59
-3.20
-2.04
-1.25
-0.80
-0.59
-0.50
-0.49
-0.55
-0.72
-0.97
-1.26
-1.48
-1.56
-1.45
-1.15
-0.72
-0.19
0.39
0.98
1.58
2.21
2.86
3.48
3.99
4.27
4.27
4.01
3.65
3.40
3.45
3.92
4.73
5.66
6.45
6.86
6.82
6.45
5.97
5.66
5.72
6.19
7.08
8.36
9.90
11.44
12.48
12.36
10.56
6.97
2.13
-2.92
-7.05
-9.49
-10.16
-9.55
-8.43
-7.41
-6.76
-6.40
-6.14
-5.89
-5.72
-5.78
-6.11
-6.61
-7.00
-7.03
-6.50
-5.51
-4.34
-3.33
-2.77
-2.70
-2.96
-3.21
-3.20
-2.81
-2.19
-1.62
-1.39
-1.66
-2.37
-3.27
-4.02
-4.36
-4.19
-3.58
-2.73
-1.85
-1.10
-0.53
-0.08
0.30
0.67
1.03
1.34
1.58
1.71
1.74
1.68
1.56
1.44
1.33
1.24
1.14
0.99
0.77
0.52
0.30
0.18
0.17
0.20
0.17
-0.00
-0.32
-0.69
-0.95
-0.98
-0.73
-0.27
0.25
0.67
0.87
0.87
0.76
0.70
0.77
0.98
1.26
1.50
1.60
1.54
1.38
1.18
1.03
0.95
0.93
0.91
0.87
0.82
0.80
0.84
0.98
1.20
1.45
1.66
1.79
1.85
1.87
1.91
1.98
2.07
2.14
2.16
2.12
2.03
1.90
1.73
1.50
1.22
0.95
0.74
0.66
0.67
0.66
0.50
0.08
-0.57
-1.31
-1.94
-2.32
-2.38
-2.18
-1.83
-1.47
-1.23
-1.20
-1.42
-1.88
-2.48
-3.09
-3.58
-3.87
-3.93
-3.82
-3.61
-3.40
-3.22
-3.10
-3.07
-3.13
-3.27
-3.49
-3.72
-3.89
-3.94
-3.83
-3.56
-3.16
-2.67
-2.10
-1.46
-0.74
0.06
0.90
1.75
2.53
3.22
3.78
4.19
4.43
4.44
4.24
3.84
3.34
2.88
2.60
2.57
2.78
3.10
3.36
3.46
3.32
3.01
2.64
2.31
2.11
2.06
2.10
2.17
2.18
2.09
1.88
1.56
1.15
0.69
0.22
-0.23
-0.64
-1.00
-1.30
-1.50
-1.60
-1.58
-1.43
-1.18
-0.86
-0.51
-0.16
0.18
0.53
0.88
1.21
1.46
1.55
1.42
1.10
0.70
0.37
0.25
0.34
0.56
0.75
0.77
0.59
0.27
-0.08
-0.37
-0.59
-0.78
-0.99
-1.21
-1.42
-1.52
-1.51
-1.38
-1.21
-1.06
-0.99
-0.99
-1.05
-1.13
-1.18
-1.16
-1.03
-0.74
-0.26
0.36
1.04
1.68
2.17
2.46
2.52
2.38
2.05
1.48
0.63
-0.52
-1.85
-3.16
-4.19
-4.77
-4.85
-4.52
-3.96
-3.29
-2.58
-1.81
-1.01
-0.26
0.28
0.48
0.33
-0.07
-0.47
-0.68
-0.57
-0.20
0.31
0.79
1.12
1.27
1.28
1.26
1.29
1.46
1.78
2.22
2.72
3.16
3.44
3.49
3.31
2.94
2.44
1.87
1.27
0.68
0.11
-0.40
-0.83
-1.15
-1.35
-1.47
-1.57
-1.70
-1.88
-2.08
-2.25
-2.35
-2.39
-2.45
-2.60
-2.85
-3.13
-3.31
-3.32
-3.18
-3.05
-3.10
-3.47
-4.14
-4.96
-5.73
-6.30
-6.62
-6.70
-6.60
-6.35
-5.94
-5.41
-4.79
-4.13
-3.43
-2.65
-1.73
-0.64
0.60
1.85
2.97
3.82
4.39
4.76
5.06
5.39
5.76
6.12
6.41
6.59
6.67
6.66
6.57
6.42
6.24
6.13
6.24
6.65
7.31
7.98
8.33
8.06
7.05
5.45
3.55
1.71
0.19
-0.87
-1.50
-1.74
-1.62
-1.15
-0.37
0.66
1.72
2.54
2.83
2.41
1.27
-0.41
-2.27
-3.96
-5.23
-5.97
-6.26
-6.27
-6.22
-6.29
-6.59
-7.11
-7.69
-8.08
-7.97
-7.18
-5.67
-3.63
-1.42
0.48
1.58
1.51
0.05
-2.66
-6.11
-9.45
-11.76
-12.31
-10.92
-8.00
-4.37
-0.97
1.56
2.99
3.48
3.32
2.80
2.05
1.16
0.27
-0.44
-0.77
-0.66
-0.23
0.23
0.44
0.21
-0.44
-1.26
-1.86
-1.86
-1.03
0.57
2.63
4.64
6.10
6.74
6.59
5.93
5.16
4.57
4.32
4.42
4.76
5.25
5.78
6.26
6.57
6.66
6.52
6.26
5.99
5.78
5.64
5.56
5.56
5.71
6.08
6.63
7.22
7.61
7.60
7.09
6.14
4.88
3.46
2.02
0.66
-0.52
-1.47
-2.19
-2.83
-3.54
-4.39
-5.28
-5.96
-6.17
-5.80
-4.96
-3.91
-2.94
-2.22
-1.77
-1.50
-1.31
-1.16
-1.06
-1.05
-1.11
-1.22
-1.33
-1.38
-1.31
-1.11
-0.79
-0.40
-0.03
0.24
0.35
0.31
0.15
-0.10
-0.41
-0.76
-1.08
-1.27
-1.26
-1.01
-0.61
-0.17
0.18
0.39
0.48
0.52
0.55
0.56
0.48
0.28
0.00
-0.25
-0.35
-0.23
0.05
0.36
0.52
0.46
0.17
-0.27
-0.74
-1.13
-1.37
-1.44
-1.40
-1.32
-1.28
-1.37
-1.62
-2.00
-2.44
-2.82
-3.06
-3.11
-2.99
-2.75
-2.43
-2.08
-1.76
-1.50
-1.35
-1.37
-1.55
-1.90
-2.35
-2.85
-3.32
-3.70
-3.98
-4.14
-4.20
-4.19
-4.16
-4.13
-4.10
-4.04
-3.90
-3.66
-3.33
-2.96
-2.59
-2.25
-1.89
-1.44
-0.83
-0.04
0.87
1.79
2.58
3.12
3.32
3.18
2.74
2.08
1.33
0.63
0.08
-0.22
-0.22
0.05
0.54
1.17
1.86
2.54
3.16
3.68
4.07
4.29
4.35
4.28
4.11
3.88
3.63
3.34
3.03
2.68
2.31
1.92
1.50
1.02
0.49
-0.06
-0.55
-0.89
-1.01
-0.88
-0.54
-0.06
0.47
0.98
1.44
1.84
2.20
2.53
2.84
3.12
3.36
3.56
3.75
3.96
4.21
4.43
4.53
4.39
3.96
3.31
2.57
1.93
1.53
1.39
1.44
1.57
1.65
1.63
1.44
1.09
0.57
-0.07
-0.74
-1.31
-1.69
-1.86
-1.86
-1.76
-1.63
-1.50
-1.33
-1.13
-0.96
-0.90
-1.06
-1.39
-1.77
-2.00
-1.98
-1.76
-1.51
-1.44
-1.63
-2.02
-2.42
-2.63
-2.56
-2.24
-1.83
-1.51
-1.37
-1.42
-1.59
-1.76
-1.84
-1.80
-1.64
-1.42
-1.21
-1.12
-1.17
-1.35
-1.58
-1.76
-1.79
-1.59
-1.18
-0.55
0.18
0.89
1.43
1.66
1.55
1.17
0.64
0.11
-0.30
-0.51
-0.49
-0.26
0.13
0.54
0.80
0.77
0.41
-0.18
-0.80
-1.22
-1.31
-1.08
-0.65
-0.21
0.11
0.24
0.18
0.03
-0.11
-0.15
-0.05
0.11
0.21
0.10
-0.24
-0.71
-1.14
-1.38
-1.38
-1.23
-1.09
-1.10
-1.32
-1.64
-1.89
-1.89
-1.53
-0.80
0.17
1.25
2.25
3.01
3.43
3.48
3.18
2.64
2.00
1.37
0.81
0.34
-0.08
-0.45
-0.77
-0.96
-1.00
-0.94
-0.87
-0.91
-1.10
-1.34
-1.48
-1.37
-0.96
-0.36
0.21
0.57
0.64
0.47
0.21
0.01
-0.07
-0.05
-0.01
-0.01
-0.06
-0.14
-0.22
-0.28
-0.32
-0.30
-0.15
0.24
0.95
1.93
3.05
4.08
4.80
5.07
4.88
4.32
3.55
2.71
1.92
1.25
0.79
0.60
0.69
0.98
1.34
1.58
1.56
1.24
0.70
0.09
-0.46
-0.87
-1.15
-1.37
-1.57
-1.71
-1.73
-1.61
-1.36
-1.07
-0.83
-0.70
-0.67
-0.68
-0.71
-0.75
-0.83
-1.00
-1.24
-1.47
-1.61
-1.59
-1.40
-1.10
-0.80
-0.58
-0.51
-0.59
-0.77
-1.03
-1.33
-1.64
-1.96
-2.25
-2.46
-2.54
-2.44
-2.20
-1.89
-1.64
-1.55
-1.68
-2.00
-2.42
-2.84
-3.18
-3.43
-3.64
-3.85
-4.07
-4.27
-4.38
-4.36
-4.25
-4.12
-4.09
-4.21
-4.45
-4.67
-4.76
-4.61
-4.24
-3.76
-3.31
-3.02
-2.92
-3.00
-3.18
-3.43
-3.70
-3.98
-4.26
-4.54
-4.87
-5.27
-5.79
-6.42
-7.06
-7.60
-7.90
-7.88
-7.54
-6.98
-6.31
-5.68
-5.16
-4.78
-4.52
-4.30
-4.02
-3.53
-2.71
-1.43
0.32
2.51
4.95
7.44
9.73
11.69
13.25
14.50
15.62
16.75
17.94
19.11
20.08
20.65
20.69
20.17
19.18
17.80
16.13
14.23
12.19
10.11
8.15
6.43
4.99
3.76
2.60
1.33
-0.09
-1.64
-3.17
-4.52
-5.56
-6.21
-6.44
-6.29
-5.84
-5.20
-4.56
-4.09
-3.93
-4.11
-4.56
-5.10
-5.52
-5.68
-5.60
-5.45
-5.52
-6.12
-7.40
-9.27
-11.43
-13.50
-15.19
-16.42
-17.25
-17.83
-18.18
-18.21
-17.73
-16.57
-14.61
-11.64
-7.30
-1.20
6.82
16.33
26.22
35.01
41.43
44.99
46.03
45.32
43.51
40.69
36.46
30.34
22.39
13.32
4.34
-3.38
-9.10
-12.64
-14.21
-14.16
-12.82
-10.50
-7.59
-4.63
-2.23
-0.94
-1.08
-2.59
-5.08
-7.90
-10.39
-12.09
-12.85
-12.87
-12.52
-12.16
-12.04
-12.17
-12.41
-12.58
-12.59
-12.46
-12.33
-12.30
-12.36
-12.32
-11.87
-10.66
-8.43
-5.14
-0.98
3.66
8.25
12.22
15.12
16.63
16.68
15.45
13.30
10.70
8.09
5.80
3.96
2.59
1.64
1.00
0.54
0.07
-0.65
-1.85
-3.73
-6.39
-9.79
-13.70
-17.77
-21.56
-24.72
-27.10
-28.84
-30.33
-31.99
-33.99
-36.11
-37.72
-38.04
-36.48
-32.92
-27.78
-21.93
-16.36
-11.94
-9.15
-8.01
-8.16
-9.12
-10.50
-12.31
-14.86
-18.54
-23.47
-29.24
-35.00
-39.76
-42.96
-44.72
-45.83
-47.40
-50.37
-55.24
-61.99
-69.99
-77.89
-83.53
-84.18
-77.26
-61.45
-37.52
-8.42
21.53
48.16
68.82
82.91
91.41
95.92
97.66
97.17
94.63
90.42
85.37
80.64
77.12
75.03
73.83
72.53
70.22
66.53
61.79
56.84
52.59
49.58
47.79
46.69
45.52
43.80
41.51
39.12
37.38
36.92
37.90
40.00
42.46
44.33
44.59
42.29
36.70
27.54
15.20
0.89
-13.58
-26.28
-35.77
-41.56
-44.07
-44.30
-43.29
-41.72
-39.84
-37.65
-35.17
-32.59
-30.18
-28.10
-26.31
-24.57
-22.59
-20.19
-17.42
-14.46
-11.47
-8.42
-4.98
-0.65
5.07
12.43
21.18
30.65
39.85
47.77
53.75
57.64
59.85
61.15
62.34
63.95
66.07
68.44
70.57
71.92
71.97
70.22
66.33
60.22
52.28
43.41
34.63
26.57
19.11
11.35
2.22
-8.79
-21.04
-32.91
-42.51
-48.55
-50.93
-50.63
-49.03
-47.25
-45.67
-44.08
-42.07
-39.51
-36.67
-34.02
-31.94
-30.45
-29.24
-27.91
-26.22
-24.27
-22.42
-21.13
-20.68
-21.07
-22.03
-23.14
-24.01
-24.44
-24.44
-24.16
-23.80
-23.51
-23.31
-23.12
-22.81
-22.22
-21.24
-19.90
-18.33
-16.73
-15.32
-14.22
-13.39
-12.68
-11.86
-10.79
-9.42
-7.83
-6.20
-4.69
-3.47
-2.65
-2.26
-2.27
-2.54
-2.88
-3.09
-3.04
-2.69
-2.10
-1.43
-0.83
-0.50
-0.55
-1.08
-2.04
-3.31
-4.65
-5.86
-6.80
-7.42
-7.76
-7.85
-7.72
-7.35
-6.73
-5.85
-4.71
-3.35
-1.79
-0.09
1.64
3.24
4.54
5.38
5.75
5.71
5.44
5.08
4.70
4.29
3.75
3.03
2.11
1.11
0.20
-0.40
-0.51
-0.04
0.99
2.41
4.03
5.60
6.92
7.91
8.58
9.01
9.33
9.61
9.84
9.96
9.90
9.59
9.03
8.26
7.33
6.29
5.20
4.10
3.03
2.04
1.13
0.29
-0.50
-1.28
-2.02
-2.69
-3.24
-3.66
-3.96
-4.18
-4.37
-4.54
-4.69
-4.78
-4.78
-4.70
-4.56
-4.41
-4.26
-4.10
-3.90
-3.66
-3.40
-3.18
-3.05
-3.03
-3.11
-3.22
-3.33
-3.42
-3.47
-3.45
-3.32
-3.01
-2.45
-1.69
-0.80
0.05
0.77
1.27
1.57
1.75
1.92
2.15
2.48
2.86
3.21
3.43
3.47
3.35
3.12
2.84
2.59
2.37
2.20
2.07
1.98
1.90
1.82
1.72
1.60
1.49
1.39
1.29
1.14
0.86
0.43
-0.09
-0.60
-0.98
-1.19
-1.27
-1.26
-1.22
-1.14
-1.01
-0.82
-0.63
-0.49
-0.44
-0.43
-0.43
-0.40
-0.38
-0.44
-0.59
-0.84
-1.07
-1.19
-1.17
-1.04
-0.91
-0.85
-0.85
-0.82
-0.70
-0.47
-0.23
-0.09
-0.14
-0.37
-0.66
-0.87
-0.93
-0.83
-0.68
-0.61
-0.68
-0.89
-1.11
-1.21
-1.11
-0.83
-0.50
-0.26
-0.22
-0.36
-0.57
-0.69
-0.65
-0.46
-0.19
0.03
0.16
0.19
0.19
0.21
0.28
0.34
0.33
0.20
-0.05
-0.36
-0.62
-0.72
-0.58
-0.24
0.22
0.64
0.88
0.88
0.70
0.45
0.27
0.20
0.24
0.31
0.34
0.28
0.13
-0.06
-0.22
-0.30
-0.31
-0.27
-0.21
-0.13
-0.02
0.16
0.42
0.70
0.93
1.02
0.93
0.69
0.40
0.17
0.08
0.15
0.31
0.49
0.62
0.68
0.71
0.72
0.74
0.77
0.83
0.92
1.05
1.23
1.44
1.62
1.71
1.69
1.57
1.41
1.26
1.17
1.11
1.10
1.11
1.18
1.33
1.55
1.79
2.00
2.16
2.27
2.39
2.54
2.75
3.00
3.23
3.44
3.57
3.54
3.24
2.51
1.30
-0.34
-2.22
-4.09
-5.73
-6.99
-7.82
-8.21
-8.16
-7.63
-6.63
-5.25
-3.66
-2.08
-0.75
0.15
0.53
0.40
-0.17
-1.02
-2.01
-2.99
-3.88
-4.67
-5.41
-6.12
-6.84
-7.53
-8.12
-8.52
-8.62
-8.32
-7.56
-6.36
-4.77
-2.93
-0.95
1.11
3.19
5.23
7.09
8.55
9.37
9.36
8.54
7.09
5.34
3.65
2.28
1.38
0.95
0.94
1.24
1.77
2.42
3.07
3.60
3.89
3.85
3.47
2.79
1.92
0.99
0.12
-0.58
-1.07
-1.36
-1.45
-1.37
-1.12
-0.70
-0.14
0.45
0.95
1.19
1.11
0.73
0.18
-0.36
-0.74
-0.87
-0.78
-0.55
-0.29
-0.08
0.07
0.22
0.41
0.70
1.06
1.42
1.69
1.76
1.58
1.14
0.52
-0.13
-0.71
-1.11
-1.33
-1.39
-1.35
-1.27
-1.21
-1.15
-1.11
-1.07
-1.04
-1.04
-1.14
-1.35
-1.68
-2.06
-2.40
-2.60
-2.62
-2.48
-2.25
-2.02
-1.80
-1.61
-1.43
-1.26
-1.17
-1.22
-1.45
-1.78
-2.09
-2.24
-2.16
-1.88
-1.51
-1.16
-0.88
-0.63
-0.35
0.02
0.47
0.93
1.32
1.60
1.77
1.90
2.04
2.22
2.45
2.69
2.89
3.00
2.95
2.69
2.23
1.62
1.02
0.60
0.51
0.82
1.48
2.35
3.28
4.11
4.70
4.97
4.84
4.33
3.56
2.71
1.98
1.50
1.30
1.30
1.39
1.49
1.55
1.55
1.45
1.17
0.68
-0.00
-0.72
-1.27
-1.51
-1.43
-1.16
-0.90
-0.79
-0.88
-1.11
-1.36
-1.54
-1.59
-1.49
-1.28
-0.99
-0.66
-0.36
-0.14
-0.03
-0.02
-0.08
-0.18
-0.32
-0.49
-0.67
-0.81
-0.82
-0.69
-0.45
-0.24
-0.21
-0.45
-0.93
-1.51
-2.02
-2.33
-2.42
-2.34
-2.16
-1.95
-1.71
-1.46
-1.20
-0.96
-0.77
-0.68
-0.66
-0.67
-0.66
-0.56
-0.38
-0.13
0.12
0.30
0.38
0.34
0.23
0.11
0.03
0.02
0.10
0.25
0.49
0.78
1.10
1.38
1.54
1.54
1.37
1.09
0.78
0.51
0.30
0.14
-0.01
-0.15
-0.27
-0.31
-0.26
-0.17
-0.13
-0.27
-0.61
-1.07
-1.48
-1.64
-1.47
-1.01
-0.46
-0.01
0.24
0.31
0.32
0.38
0.55
0.74
0.85
0.84
0.75
0.67
0.72
0.94
1.24
1.49
1.55
1.38
1.01
0.58
0.20
-0.05
-0.16
-0.16
-0.10
-0.01
0.09
0.20
0.27
0.24
0.05
-0.31
-0.77
-1.22
-1.46
-1.42
-1.09
-0.63
-0.23
-0.05
-0.14
-0.41
-0.73
-0.98
-1.14
-1.21
-1.27
-1.34
-1.40
-1.38
-1.26
-1.01
-0.70
-0.36
-0.07
0.14
0.22
0.18
0.01
-0.27
-0.56
-0.79
-0.86
-0.68
-0.27
0.31
0.91
1.39
1.61
1.54
1.26
0.89
0.57
0.41
0.44
0.66
0.98
1.34
1.65
1.85
1.89
1.77
1.49
1.09
0.61
0.11
-0.37
-0.73
-0.89
-0.80
-0.47
-0.04
0.31
0.44
0.28
-0.08
-0.46
-0.70
-0.72
-0.52
-0.20
0.11
0.31
0.37
0.27
0.05
-0.27
-0.67
-1.10
-1.51
-1.81
-1.96
-1.92
-1.72
-1.46
-1.23
-1.09
-1.05
-1.04
-0.99
-0.87
-0.70
-0.55
-0.45
-0.37
-0.25
-0.02
0.28
0.58
0.74
0.67
0.40
0.05
-0.24
-0.35
-0.25
0.01
0.37
0.73
1.06
1.32
1.52
1.69
1.90
2.18
2.52
2.82
2.95
2.79
2.34
1.69
1.01
0.44
0.05
-0.20
-0.39
-0.59
-0.78
-0.89
-0.87
-0.69
-0.40
-0.07
0.22
0.43
0.54
0.55
0.47
0.30
0.06
-0.23
-0.53
-0.78
-0.94
-0.99
-0.89
-0.65
-0.30
0.14
0.58
0.93
1.11
1.06
0.79
0.40
0.03
-0.20
-0.22
-0.08
0.13
0.28
0.31
0.24
0.10
-0.04
-0.16
-0.22
-0.23
-0.19
-0.12
-0.03
0.04
0.11
0.21
0.34
0.50
0.63
0.68
0.59
0.41
0.21
0.04
-0.05
-0.11
-0.20
-0.34
-0.51
-0.61
-0.54
-0.25
0.21
0.73
1.19
1.48
1.58
1.55
1.50
1.55
1.72
1.94
2.08
1.96
1.50
0.75
-0.11
-0.86
-1.33
-1.44
-1.26
-0.95
-0.67
-0.56
-0.66
-0.93
-1.32
-1.72
-2.10
-2.42
-2.67
-2.85
-2.98
-3.05
-3.07
-3.03
-2.94
-2.82
-2.68
-2.52
-2.32
-2.07
-1.73
-1.30
-0.79
-0.19
0.46
1.15
1.80
2.37
2.75
2.90
2.80
2.48
2.01
1.47
0.95
0.50
0.16
-0.02
-0.04
0.13
0.43
0.80
1.08
1.16
0.94
0.44
-0.24
-0.90
-1.36
-1.50
-1.32
-0.93
-0.46
-0.04
0.26
0.45
0.57
0.63
0.65
0.62
0.52
0.38
0.20
0.04
-0.11
-0.30
-0.56
-0.93
-1.39
-1.86
-2.20
-2.36
-2.33
-2.23
-2.22
-2.42
-2.83
-3.36
-3.82
-4.06
-3.98
-3.62
-3.02
-2.26
-1.38
-0.37
0.74
1.92
3.08
4.09
4.82
5.15
5.05
4.55
3.78
2.91
2.12
1.52
1.12
0.88
0.76
0.73
0.76
0.85
0.93
0.94
0.81
0.57
0.31
0.16
0.22
0.49
0.86
1.16
1.26
1.14
0.86
0.57
0.38
0.36
0.45
0.55
0.56
0.39
0.05
-0.41
-0.89
-1.29
-1.55
-1.65
-1.61
-1.48
-1.35
-1.30
-1.40
-1.69
-2.12
-2.59
-2.92
-2.94
-2.61
-2.01
-1.32
-0.78
-0.53
-0.59
-0.84
-1.10
-1.22
-1.14
-0.88
-0.56
-0.28
-0.14
-0.17
-0.34
-0.60
-0.88
-1.12
-1.30
-1.38
-1.33
-1.10
-0.62
0.15
1.17
2.26
3.23
3.86
4.07
3.88
3.41
2.83
2.26
1.79
1.46
1.31
1.39
1.68
2.09
2.48
2.68
2.60
2.25
1.77
1.30
0.94
0.72
0.61
0.56
0.55
0.57
0.60
0.62
0.55
0.35
0.03
-0.36
-0.68
-0.84
-0.81
-0.62
-0.45
-0.43
-0.66
-1.09
-1.59
-1.97
-2.10
-1.97
-1.63
-1.19
-0.75
-0.36
-0.07
0.08
0.07
-0.12
-0.44
-0.82
-1.16
-1.40
-1.50
-1.47
-1.28
-0.96
-0.54
-0.10
0.26
0.45
0.44
0.26
-0.01
-0.26
-0.39
-0.33
-0.07
0.33
0.71
0.94
0.91
0.66
0.30
-0.04
-0.26
-0.34
-0.34
-0.29
-0.19
0.01
0.29
0.60
0.81
0.79
0.54
0.17
-0.13
-0.19
0.07
0.57
1.16
1.65
1.91
1.87
1.53
0.95
0.26
-0.38
-0.83
-0.96
-0.77
-0.37
0.09
0.43
0.59
0.57
0.48
0.37
0.28
0.19
0.10
0.00
-0.06
-0.04
0.07
0.20
0.30
0.28
0.09
-0.24
-0.66
-1.07
-1.34
-1.35
-1.03
-0.40
0.39
1.12
1.60
1.72
1.53
1.22
0.97
0.93
1.12
1.45
1.76
1.87
1.71
1.25
0.53
-0.33
-1.24
-2.02
-2.56
-2.72
-2.47
-1.90
-1.23
-0.70
-0.53
-0.77
-1.32
-1.98
-2.52
-2.80
-2.79
-2.52
-2.12
-1.67
-1.24
-0.88
-0.60
-0.36
-0.11
0.22
0.67
1.21
1.76
2.16
2.26
1.98
1.30
0.39
-0.52
-1.17
-1.38
-1.12
-0.49
0.31
1.08
1.66
1.98
2.00
1.72
1.17
0.44
-0.30
-0.87
-1.12
-0.99
-0.55
0.06
0.66
1.15
1.49
1.69
1.74
1.65
1.42
1.11
0.81
0.63
0.65
0.86
1.16
1.41
1.49
1.36
1.09
0.78
0.56
0.47
0.49
0.52
0.49
0.34
0.06
-0.32
-0.78
-1.27
-1.75
-2.14
-2.36
-2.33
-2.05
-1.56
-1.03
-0.58
-0.33
-0.28
-0.34
-0.39
-0.32
-0.09
0.23
0.56
0.82
0.96
0.97
0.87
0.71
0.49
0.20
-0.13
-0.45
-0.70
-0.82
-0.82
-0.78
-0.82
-1.04
-1.47
-2.01
-2.49
-2.74
-2.63
-2.11
-1.26
-0.22
0.86
1.81
2.52
2.90
2.90
2.53
1.87
1.03
0.15
-0.64
-1.22
-1.53
-1.56
-1.38
-1.08
-0.74
-0.42
-0.13
0.16
0.50
0.91
1.38
1.85
2.21
2.35
2.21
1.77
1.08
0.26
-0.58
-1.33
-1.94
-2.38
-2.62
-2.63
-2.38
-1.84
-1.05
-0.11
0.80
1.50
1.84
1.74
1.23
0.44
-0.42
-1.11
-1.49
-1.50
-1.21
-0.79
-0.36
-0.02
0.23
0.42
0.56
0.62
0.58
0.43
0.22
0.03
-0.05
0.02
0.22
0.45
0.62
0.66
0.58
0.42
0.27
0.21
0.29
0.52
0.85
1.19
1.44
1.55
1.50
1.31
1.02
0.70
0.41
0.20
0.09
0.10
0.18
0.27
0.29
0.18
-0.08
-0.46
-0.87
-1.20
-1.33
-1.23
-0.91
-0.46
0.00
0.37
0.54
0.48
0.25
-0.09
-0.42
-0.63
-0.67
-0.53
-0.29
-0.05
0.07
0.03
-0.15
-0.38
-0.55
-0.55
-0.36
-0.04
0.33
0.66
0.87
0.91
0.78
0.48
0.07
-0.37
-0.72
-0.88
-0.79
-0.49
-0.08
0.30
0.53
0.59
0.51
0.37
0.21
0.06
-0.10
-0.31
-0.55
-0.77
-0.92
-0.93
-0.83
-0.67
-0.54
-0.47
-0.45
-0.41
-0.26
0.06
0.49
0.93
1.22
1.26
1.05
0.67
0.24
-0.17
-0.55
-0.96
-1.42
-1.88
-2.22
-2.33
-2.13
-1.67
-1.07
-0.49
-0.03
0.29
0.50
0.65
0.75
0.77
0.69
0.50
0.26
0.03
-0.14
-0.21
-0.19
-0.14
-0.09
-0.09
-0.13
-0.22
-0.34
-0.47
-0.58
-0.63
-0.58
-0.43
-0.18
0.09
0.33
0.48
0.52
0.50
0.46
0.43
0.42
0.40
0.37
0.31
0.26
0.21
0.18
0.12
0.02
-0.12
-0.28
-0.45
-0.62
-0.78
-0.92
-1.00
-1.02
-0.98
-0.94
-0.93
-0.94
-0.88
-0.67
-0.27
0.20
0.55
0.60
0.31
-0.18
-0.62
-0.77
-0.58
-0.13
0.39
0.82
1.07
1.19
1.23
1.24
1.22
1.16
1.05
0.96
0.96
1.10
1.36
1.66
1.85
1.83
1.60
1.24
0.90
0.70
0.69
0.80
0.90
0.90
0.79
0.62
0.49
0.46
0.50
0.51
0.41
0.14
-0.25
-0.65
-0.96
-1.11
-1.12
-1.05
-0.98
-0.97
-1.06
-1.18
-1.27
-1.23
-1.06
-0.78
-0.46
-0.18
0.02
0.12
0.10
-0.01
-0.23
-0.51
-0.79
-0.97
-0.98
-0.82
-0.55
-0.26
-0.05
0.04
0.01
-0.08
-0.17
-0.23
-0.26
-0.33
-0.45
-0.60
-0.70
-0.65
-0.41
-0.01
0.44
0.83
1.08
1.18
1.19
1.16
1.14
1.11
1.05
0.93
0.77
0.58
0.37
0.18
-0.01
-0.17
-0.30
-0.39
-0.45
-0.49
-0.49
-0.46
-0.41
-0.37
-0.36
-0.42
-0.52
-0.61
-0.62
-0.51
-0.27
0.06
0.40
0.69
0.89
0.99
1.00
0.94
0.82
0.63
0.35
0.00
-0.38
-0.71
-0.89
-0.87
-0.66
-0.33
-0.01
0.18
0.17
0.00
-0.25
-0.45
-0.52
-0.41
-0.17
0.14
0.42
0.61
0.67
0.61
0.45
0.19
-0.12
-0.45
-0.73
-0.91
-0.91
-0.77
-0.56
-0.39
-0.38
-0.52
-0.74
-0.90
-0.89
-0.72
-0.46
-0.26
-0.18
-0.20
-0.21
-0.11
0.14
0.53
0.94
1.29
1.49
1.50
1.30
0.91
0.37
-0.21
-0.71
-1.04
-1.20
-1.27
-1.36
-1.53
-1.77
-1.97
-2.03
-1.87
-1.53
-1.04
-0.52
-0.03
0.39
0.72
0.97
1.13
1.22
1.27
1.30
1.34
1.40
1.48
1.59
1.70
1.79
1.82
1.76
1.61
1.36
1.08
0.84
0.70
0.69
0.79
0.91
0.94
0.79
0.43
-0.15
-0.87
-1.67
-2.44
-3.05
-3.33
-3.13
-2.35
-1.09
0.38
1.68
2.49
2.63
2.21
1.47
0.72
0.15
-0.21
-0.45
-0.65
-0.84
-1.00
-1.08
-1.09
-1.11
-1.18
-1.31
-1.45
-1.53
-1.53
-1.50
-1.51
-1.63
-1.84
-2.08
-2.23
-2.27
-2.20
-2.10
-1.99
-1.87
-1.66
-1.31
-0.83
-0.32
0.13
0.46
0.70
0.91
1.14
1.38
1.56
1.62
1.58
1.55
1.61
1.81
2.07
2.27
2.28
2.08
1.77
1.45
1.22
1.12
1.10
1.11
1.11
1.12
1.15
1.20
1.23
1.16
0.95
0.59
0.19
-0.14
-0.28
-0.18
0.09
0.39
0.62
0.73
0.76
0.82
0.96
1.17
1.34
1.36
1.19
0.88
0.51
0.14
-0.19
-0.54
-0.91
-1.26
-1.48
-1.47
-1.21
-0.82
-0.50
-0.43
-0.70
-1.22
-1.79
-2.23
-2.42
-2.41
-2.32
-2.25
-2.24
-2.22
-2.11
-1.83
-1.41
-0.94
-0.55
-0.29
-0.14
0.02
0.26
0.61
1.01
1.36
1.59
1.70
1.74
1.81
1.97
2.24
2.58
2.92
3.20
3.37
3.42
3.33
3.10
2.73
2.24
1.65
1.03
0.48
0.07
-0.13
-0.13
-0.02
0.09
0.11
0.03
-0.11
-0.21
-0.21
-0.14
-0.02
0.06
0.05
-0.05
-0.25
-0.53
-0.86
-1.18
-1.39
-1.44
-1.30
-1.05
-0.81
-0.69
-0.73
-0.85
-0.94
-0.92
-0.80
-0.71
-0.77
-1.05
-1.51
-2.02
-2.40
-2.56
-2.46
-2.14
-1.66
-1.09
-0.49
0.08
0.55
0.87
1.04
1.08
1.07
1.06
1.09
1.18
1.35
1.55
1.75
1.86
1.82
1.63
1.35
1.11
1.01
1.10
1.31
1.51
1.56
1.44
1.16
0.85
0.60
0.44
0.39
0.37
0.33
0.22
0.02
-0.29
-0.68
-1.15
-1.65
-2.16
-2.65
-3.07
-3.39
-3.55
-3.52
-3.33
-3.00
-2.62
-2.25
-1.94
-1.75
-1.65
-1.61
-1.56
-1.44
-1.20
-0.85
-0.45
-0.07
0.23
0.43
0.55
0.61
0.62
0.60
0.59
0.63
0.72
0.88
1.06
1.21
1.32
1.40
1.50
1.62
1.75
1.82
1.80
1.71
1.58
1.51
1.54
1.68
1.91
2.19
2.49
2.75
2.91
2.89
2.61
2.10
1.43
0.76
0.20
-0.16
-0.35
-0.45
-0.54
-0.63
-0.75
-0.89
-1.06
-1.31
-1.66
-2.08
-2.50
-2.83
-3.03
-3.09
-3.06
-2.96
-2.83
-2.62
-2.32
-1.91
-1.45
-0.99
-0.60
-0.32
-0.16
-0.09
-0.10
-0.16
-0.26
-0.36
-0.43
-0.45
-0.37
-0.17
0.13
0.52
0.97
1.46
1.96
2.43
2.83
3.13
3.27
3.22
2.98
2.55
2.02
1.48
1.04
0.80
0.74
0.83
0.93
0.95
0.83
0.56
0.22
-0.14
-0.47
-0.76
-1.03
-1.27
-1.45
-1.53
-1.48
-1.29
-1.06
-0.88
-0.87
-1.06
-1.43
-1.87
-2.28
-2.56
-2.68
-2.62
-2.39
-2.01
-1.49
-0.90
-0.37
-0.03
0.02
-0.19
-0.54
-0.80
-0.79
-0.46
0.06
0.58
0.92
1.02
0.97
0.89
0.90
1.00
1.15
1.27
1.35
1.42
1.56
1.81
2.13
2.43
2.63
2.67
2.55
2.32
2.04
1.80
1.65
1.62
1.68
1.73
1.68
1.43
0.97
0.34
-0.31
-0.87
-1.21
-1.30
-1.20
-1.03
-0.90
-0.93
-1.15
-1.51
-1.93
-2.34
-2.64
-2.84
-2.94
-2.99
-3.02
-3.03
-2.98
-2.83
-2.55
-2.18
-1.80
-1.54
-1.44
-1.48
-1.54
-1.46
-1.15
-0.59
0.14
0.88
1.49
1.85
1.93
1.77
1.47
1.18
1.02
1.04
1.21
1.43
1.60
1.67
1.67
1.65
1.67
1.75
1.84
1.91
1.92
1.87
1.81
1.75
1.74
1.73
1.67
1.50
1.20
0.78
0.34
-0.02
-0.25
-0.35
-0.38
-0.39
-0.41
-0.44
-0.46
-0.47
-0.53
-0.72
-1.04
-1.46
-1.84
-2.07
-2.09
-1.97
-1.84
-1.83
-2.00
-2.32
-2.66
-2.91
-2.96
-2.78
-2.36
-1.81
-1.23
-0.74
-0.42
-0.27
-0.20
-0.12
0.06
0.34
0.67
0.96
1.16
1.27
1.35
1.47
1.64
1.81
1.90
1.88
1.80
1.74
1.77
1.88
2.01
2.05
1.94
1.73
1.53
1.45
1.54
1.72
1.88
1.87
1.62
1.14
0.51
-0.16
-0.76
-1.21
-1.49
-1.61
-1.62
-1.60
-1.61
-1.67
-1.74
-1.78
-1.74
-1.61
-1.44
-1.32
-1.32
-1.46
-1.67
-1.86
-1.88
-1.71
-1.36
-0.96
-0.61
-0.38
-0.26
-0.20
-0.15
-0.10
-0.10
-0.15
-0.26
-0.35
-0.36
-0.26
-0.07
0.15
0.33
0.47
0.56
0.62
0.66
0.68
0.66
0.63
0.65
0.78
1.04
1.40
1.78
2.09
2.30
2.39
2.43
2.44
2.43
2.36
2.17
1.82
1.31
0.71
0.15
-0.24
-0.37
-0.24
0.05
0.36
0.54
0.51
0.25
-0.17
-0.66
-1.15
-1.57
-1.89
-2.08
-2.17
-2.16
-2.07
-1.88
-1.57
-1.14
-0.60
-0.07
0.34
0.52
0.44
0.17
-0.18
-0.49
-0.70
-0.82
-0.86
-0.86
-0.82
-0.74
-0.66
-0.61
-0.62
-0.66
-0.66
-0.47
-0.01
0.72
1.61
2.48
3.13
3.44
3.37
2.96
2.32
1.59
0.88
0.31
-0.12
-0.44
-0.75
-1.14
-1.65
-2.21
-2.65
-2.81
-2.59
-2.02
-1.26
-0.49
0.13
0.56
0.82
0.96
1.02
0.97
0.79
0.48
0.09
-0.30
-0.59
-0.73
-0.70
-0.52
-0.27
-0.09
-0.11
-0.40
-0.94
-1.56
-2.03
-2.14
-1.82
-1.15
-0.38
0.24
0.53
0.49
0.27
0.07
0.01
0.10
0.25
0.36
0.41
0.48
0.71
1.17
1.77
2.30
2.54
2.35
1.76
0.97
0.23
-0.26
-0.39
-0.19
0.24
0.73
1.11
1.25
1.11
0.75
0.35
0.09
0.08
0.29
0.57
0.71
0.59
0.21
-0.30
-0.75
-1.00
-1.00
-0.81
-0.56
-0.37
-0.33
-0.41
-0.55
-0.63
-0.58
-0.43
-0.29
-0.31
-0.55
-1.00
-1.47
-1.78
-1.77
-1.43
-0.88
-0.31
0.11
0.27
0.19
-0.03
-0.25
-0.33
-0.22
0.05
0.37
0.60
0.64
0.49
0.21
-0.04
-0.15
-0.06
0.18
0.44
0.59
0.57
0.41
0.23
0.17
0.30
0.61
0.97
1.26
1.37
1.27
1.01
0.69
0.40
0.17
0.02
-0.14
-0.36
-0.70
-1.10
-1.48
-1.70
-1.69
-1.43
-1.02
-0.57
-0.17
0.18
0.48
0.79
1.05
1.16
1.01
0.58
-0.00
-0.50
-0.67
-0.42
0.16
0.80
1.19
1.17
0.76
0.19
-0.30
-0.53
-0.54
-0.49
-0.57
-0.87
-1.28
-1.59
-1.56
-1.15
-0.44
0.32
0.88
1.12
1.08
0.94
0.83
0.81
0.79
0.66
0.31
-0.21
-0.74
-1.09
-1.14
-0.87
-0.40
0.11
0.50
0.75
0.86
0.89
0.84
0.69
0.40
-0.02
-0.52
-0.97
-1.22
-1.22
-0.96
-0.52
-0.05
0.37
0.67
0.86
0.96
0.94
0.75
0.34
-0.27
-0.99
-1.63
-1.97
-1.88
-1.35
-0.51
0.41
1.24
1.83
2.12
2.14
1.91
1.49
0.97
0.41
-0.12
-0.57
-0.86
-0.96
-0.80
-0.35
0.33
1.11
1.76
2.07
1.91
1.29
0.35
-0.70
-1.64
-2.30
-2.54
-2.28
-1.58
-0.58
0.47
1.28
1.65
1.53
1.03
0.34
-0.34
-0.85
-1.12
-1.14
-0.91
-0.50
-0.03
0.36
0.51
0.36
-0.01
-0.42
-0.70
-0.72
-0.51
-0.20
0.03
0.06
-0.13
-0.47
-0.79
-0.95
-0.83
-0.44
0.16
0.80
1.30
1.51
1.35
0.84
0.12
-0.63
-1.19
-1.43
-1.32
-0.94
-0.42
0.08
0.47
0.69
0.72
0.59
0.36
0.10
-0.11
-0.24
-0.29
-0.31
-0.36
-0.47
-0.60
-0.70
-0.70
-0.59
-0.43
-0.27
-0.14
0.01
0.22
0.52
0.85
1.10
1.15
0.97
0.63
0.28
0.06
0.04
0.17
0.34
0.41
0.35
0.19
0.01
-0.12
-0.18
-0.22
-0.29
-0.36
-0.40
-0.31
-0.06
0.32
0.72
1.04
1.19
1.13
0.90
0.53
0.10
-0.33
-0.69
-0.91
-0.93
-0.73
-0.36
0.11
0.54
0.84
0.99
1.02
1.03
1.09
1.21
1.31
1.24
0.91
0.33
-0.40
-1.08
-1.55
-1.71
-1.56
-1.15
-0.55
0.18
0.94
1.59
1.94
1.83
1.24
0.26
-0.88
-1.93
-2.70
-3.14
-3.30
-3.26
-3.09
-2.81
-2.45
-2.02
-1.57
-1.13
-0.70
-0.20
0.46
1.29
2.22
3.06
3.57
3.60
3.12
2.24
1.19
0.17
-0.63
-1.12
-1.28
-1.15
-0.83
-0.40
0.01
0.34
0.51
0.50
0.34
0.07
-0.25
-0.53
-0.73
-0.81
-0.77
-0.64
-0.42
-0.10
0.35
0.93
1.55
2.06
2.26
2.04
1.40
0.53
-0.30
-0.87
-1.09
-1.04
-0.87
-0.74
-0.73
-0.79
-0.82
-0.77
-0.62
-0.40
-0.14
0.17
0.55
0.99
1.42
1.74
1.84
1.69
1.33
0.85
0.33
-0.18
-0.67
-1.11
-1.41
-1.48
-1.24
-0.73
-0.07
0.52
0.87
0.89
0.62
0.20
-0.23
-0.55
-0.74
-0.81
-0.83
-0.84
-0.82
-0.72
-0.48
-0.06
0.49
1.04
1.45
1.55
1.30
0.74
0.03
-0.65
-1.14
-1.33
-1.21
-0.86
-0.40
0.03
0.33
0.47
0.49
0.45
0.43
0.45
0.54
0.67
0.80
0.92
1.00
0.99
0.88
0.66
0.38
0.11
-0.07
-0.14
-0.13
-0.14
-0.29
-0.67
-1.28
-2.02
-2.70
-3.13
-3.16
-2.77
-2.08
-1.25
-0.48
0.10
0.48
0.70
0.83
0.86
0.74
0.42
-0.07
-0.60
-0.97
-1.05
-0.82
-0.42
-0.08
0.01
-0.25
-0.76
-1.34
-1.76
-1.87
-1.62
-1.07
-0.41
0.20
0.62
0.82
0.88
0.90
0.97
1.12
1.30
1.41
1.40
1.27
1.07
0.88
0.76
0.71
0.71
0.75
0.82
0.91
1.02
1.09
1.06
0.85
0.44
-0.09
-0.60
-0.95
-1.02
-0.83
-0.46
-0.07
0.21
0.33
0.31
0.21
0.12
0.08
0.09
0.11
0.10
0.07
0.04
0.08
0.19
0.38
0.55
0.62
0.53
0.30
0.03
-0.13
-0.07
0.19
0.56
0.91
1.13
1.20
1.20
1.26
1.42
1.63
1.75
1.69
1.40
1.00
0.62
0.40
0.36
0.47
0.62
0.71
0.71
0.59
0.39
0.16
-0.04
-0.15
-0.17
-0.12
-0.05
-0.05
-0.14
-0.30
-0.45
-0.52
-0.47
-0.35
-0.21
-0.16
-0.25
-0.46
-0.74
-1.00
-1.20
-1.30
-1.33
-1.35
-1.41
-1.52
-1.71
-1.91
-2.09
-2.21
-2.26
-2.22
-2.10
-1.89
-1.57
-1.16
-0.70
-0.26
0.08
0.27
0.28
0.15
-0.08
-0.35
-0.62
-0.87
-1.08
-1.21
-1.19
-0.96
-0.50
0.12
0.79
1.36
1.71
1.81
1.71
1.52
1.36
1.30
1.34
1.43
1.50
1.52
1.49
1.45
1.42
1.36
1.25
1.03
0.72
0.35
0.01
-0.22
-0.32
-0.28
-0.17
-0.08
-0.08
-0.20
-0.44
-0.74
-0.99
-1.12
-1.10
-0.93
-0.71
-0.50
-0.34
-0.21
-0.09
0.04
0.14
0.16
0.10
-0.04
-0.19
-0.27
-0.26
-0.18
-0.09
-0.02
-0.02
-0.09
-0.22
-0.40
-0.60
-0.78
-0.87
-0.82
-0.62
-0.32
0.00
0.25
0.36
0.34
0.22
0.05
-0.13
-0.28
-0.39
-0.43
-0.37
-0.22
0.01
0.31
0.61
0.86
1.01
1.05
0.99
0.87
0.73
0.60
0.45
0.25
-0.03
-0.36
-0.65
-0.83
-0.85
-0.72
-0.52
-0.37
-0.31
-0.35
-0.44
-0.49
-0.47
-0.40
-0.31
-0.26
-0.26
-0.29
-0.32
-0.30
-0.22
-0.10
0.05
0.21
0.39
0.58
0.74
0.81
0.72
0.45
0.03
-0.42
-0.74
-0.84
-0.69
-0.36
0.05
0.44
0.75
0.96
1.09
1.13
1.09
0.98
0.82
0.65
0.54
0.50
0.54
0.61
0.65
0.62
0.50
0.32
0.12
-0.04
-0.14
-0.20
-0.27
-0.39
-0.58
-0.82
-1.08
-1.28
-1.39
-1.37
-1.21
-0.90
-0.49
-0.04
0.34
0.56
0.59
0.48
0.33
0.22
0.21
0.24
0.29
0.30
0.28
0.23
0.18
0.10
-0.02
-0.18
-0.34
-0.45
-0.47
-0.41
-0.30
-0.19
-0.12
-0.08
-0.06
-0.03
0.04
0.15
0.29
0.41
0.48
0.46
0.36
0.26
0.23
0.31
0.49
0.67
0.78
0.76
0.65
0.53
0.47
0.48
0.51
0.49
0.39
0.22
0.02
-0.12
-0.16
-0.10
0.05
0.23
0.41
0.54
0.58
0.53
0.37
0.14
-0.11
-0.31
-0.44
-0.48
-0.47
-0.45
-0.48
-0.55
-0.67
-0.79
-0.88
-0.90
-0.86
-0.77
-0.67
-0.60
-0.60
-0.65
-0.72
-0.75
-0.70
-0.54
-0.32
-0.08
0.13
0.29
0.42
0.52
0.61
0.66
0.63
0.53
0.37
0.18
0.02
-0.07
-0.09
-0.03
0.06
0.13
0.12
0.02
-0.14
-0.26
-0.25
-0.05
0.29
0.63
0.83
0.82
0.62
0.35
0.14
0.05
0.08
0.17
0.25
0.30
0.36
0.42
0.46
0.40
0.21
-0.12
-0.51
-0.84
-1.03
-1.06
-0.98
-0.86
-0.79
-0.75
-0.72
-0.65
-0.51
-0.28
-0.02
0.24
0.45
0.58
0.59
0.45
0.16
-0.24
-0.69
-1.10
-1.37
-1.40
-1.16
-0.67
-0.03
0.60
1.07
1.29
1.25
1.05
0.80
0.60
0.51
0.49
0.51
0.53
0.56
0.57
0.54
0.39
0.11
-0.29
-0.67
-0.90
-0.88
-0.65
-0.33
-0.08
0.00
-0.05
-0.12
-0.08
0.12
0.43
0.70
0.85
0.82
0.64
0.38
0.13
-0.06
-0.14
-0.12
-0.04
0.04
0.02
-0.12
-0.31
-0.45
-0.39
-0.11
0.29
0.62
0.68
0.43
-0.05
-0.58
-0.99
-1.21
-1.26
-1.18
-0.97
-0.61
-0.12
0.40
0.81
0.93
0.70
0.20
-0.40
-0.89
-1.15
-1.18
-1.07
-0.92
-0.83
-0.80
-0.81
-0.81
-0.78
-0.72
-0.65
-0.56
-0.44
-0.25
0.02
0.33
0.61
0.75
0.73
0.56
0.34
0.15
0.06
0.06
0.13
0.24
0.33
0.39
0.42
0.44
0.49
0.61
0.84
1.18
1.57
1.90
2.06
1.94
1.56
1.03
0.52
0.19
0.14
0.34
0.66
0.95
1.11
1.13
1.08
1.06
1.11
1.20
1.28
1.27
1.12
0.85
0.47
0.01
-0.54
-1.18
-1.88
-2.54
-3.02
-3.20
-3.04
-2.61
-2.06
-1.55
-1.15
-0.85
-0.56
-0.23
0.13
0.47
0.72
0.86
0.93
0.98
1.03
1.04
0.95
0.75
0.50
0.28
0.15
0.11
0.11
0.08
-0.02
-0.15
-0.26
-0.34
-0.38
-0.43
-0.50
-0.60
-0.70
-0.78
-0.84
-0.87
-0.88
-0.85
-0.75
-0.56
-0.29
-0.00
0.24
0.36
0.37
0.32
0.32
0.46
0.79
1.25
1.71
2.01
2.06
1.86
1.51
1.12
0.78
0.55
0.42
0.37
0.40
0.49
0.61
0.69
0.64
0.41
-0.02
-0.56
-1.08
-1.42
-1.48
-1.26
-0.85
-0.43
-0.15
-0.12
-0.35
-0.78
-1.27
-1.69
-1.94
-1.97
-1.81
-1.51
-1.18
-0.91
-0.75
-0.67
-0.63
-0.53
-0.32
-0.01
0.38
0.79
1.17
1.48
1.71
1.81
1.79
1.67
1.46
1.22
0.95
0.66
0.37
0.11
-0.02
0.03
0.29
0.67
1.03
1.23
1.18
0.91
0.54
0.21
0.01
-0.07
-0.11
-0.18
-0.35
-0.59
-0.82
-0.95
-0.98
-0.93
-0.89
-0.94
-1.07
-1.19
-1.18
-0.98
-0.58
-0.08
0.37
0.62
0.61
0.38
0.01
-0.34
-0.58
-0.66
-0.58
-0.36
-0.02
0.41
0.86
1.24
1.40
1.26
0.85
0.30
-0.21
-0.50
-0.52
-0.35
-0.16
-0.12
-0.28
-0.59
-0.91
-1.14
-1.25
-1.28
-1.28
-1.25
-1.11
-0.81
-0.39
0.02
0.28
0.28
0.07
-0.21
-0.38
-0.40
-0.29
-0.16
-0.06
0.03
0.18
0.46
0.85
1.23
1.50
1.57
1.47
1.27
1.03
0.79
0.52
0.20
-0.15
-0.47
-0.66
-0.63
-0.37
0.02
0.37
0.53
0.43
0.12
-0.27
-0.58
-0.72
-0.69
-0.54
-0.34
-0.11
0.14
0.41
0.64
0.75
0.66
0.35
-0.10
-0.57
-0.92
-1.09
-1.08
-1.00
-0.92
-0.89
-0.89
-0.89
-0.87
-0.83
-0.82
-0.83
-0.81
-0.64
-0.26
0.29
0.90
1.38
1.60
1.56
1.33
1.04
0.81
0.67
0.60
0.58
0.60
0.68
0.82
1.01
1.18
1.28
1.26
1.14
0.97
0.83
0.74
0.74
0.80
0.87
0.90
0.89
0.80
0.63
0.38
0.04
-0.35
-0.72
-0.99
-1.09
-0.99
-0.72
-0.37
-0.06
0.12
0.14
0.01
-0.19
-0.43
-0.65
-0.83
-0.95
-1.00
-0.98
-0.89
-0.74
-0.54
-0.32
-0.10
0.09
0.22
0.26
0.18
0.02
-0.16
-0.32
-0.43
-0.51
-0.58
-0.66
-0.70
-0.64
-0.44
-0.13
0.18
0.39
0.41
0.27
0.05
-0.15
-0.25
-0.27
-0.24
-0.20
-0.16
-0.09
0.04
0.21
0.39
0.50
0.51
0.41
0.26
0.10
-0.03
-0.12
-0.18
-0.22
-0.23
-0.19
-0.08
0.09
0.30
0.50
0.62
0.61
0.43
0.10
-0.28
-0.59
-0.73
-0.67
-0.46
-0.21
-0.00
0.11
0.13
0.11
0.07
0.02
-0.05
-0.16
-0.31
-0.44
-0.51
-0.44
-0.23
0.10
0.47
0.80
0.98
0.96
0.78
0.53
0.32
0.24
0.26
0.31
0.31
0.22
0.10
0.02
0.05
0.17
0.34
0.45
0.45
0.32
0.08
-0.23
-0.56
-0.88
-1.11
-1.23
-1.22
-1.10
-0.91
-0.70
-0.48
-0.29
-0.13
-0.00
0.06
0.07
0.04
0.01
0.01
0.05
0.08
0.07
0.00
-0.09
-0.15
-0.18
-0.19
-0.20
-0.24
-0.27
-0.26
-0.18
-0.04
0.14
0.30
0.42
0.50
0.55
0.59
0.61
0.60
0.56
0.53
0.53
0.55
0.57
0.55
0.49
0.43
0.46
0.60
0.79
0.92
0.84
0.50
-0.03
-0.60
-1.03
-1.22
-1.20
-1.05
-0.88
-0.74
-0.60
-0.41
-0.16
0.11
0.33
0.41
0.34
0.16
-0.07
-0.31
-0.53
-0.73
-0.89
-0.97
-0.94
-0.79
-0.55
-0.30
-0.15
-0.10
-0.14
-0.21
-0.24
-0.17
-0.01
0.20
0.44
0.66
0.85
0.98
1.04
1.02
0.90
0.69
0.40
0.08
-0.24
-0.50
-0.65
-0.65
-0.49
-0.19
0.19
0.55
0.84
0.99
0.98
0.82
0.54
0.17
-0.27
-0.69
-1.03
-1.19
-1.12
-0.85
-0.48
-0.16
0.01
0.01
-0.09
-0.20
-0.25
-0.23
-0.20
-0.23
-0.34
-0.52
-0.70
-0.83
-0.88
-0.87
-0.83
-0.76
-0.62
-0.37
0.00
0.42
0.76
0.90
0.82
0.61
0.43
0.38
0.49
0.65
0.70
0.54
0.18
-0.25
-0.60
-0.74
-0.66
-0.42
-0.13
0.11
0.27
0.33
0.30
0.22
0.14
0.10
0.16
0.31
0.49
0.62
0.61
0.43
0.10
-0.28
-0.60
-0.77
-0.73
-0.52
-0.21
0.09
0.28
0.34
0.26
0.06
-0.23
-0.59
-0.98
-1.37
-1.66
-1.75
-1.53
-1.00
-0.24
0.59
1.29
1.72
1.83
1.62
1.18
0.63
0.13
-0.20
-0.25
-0.04
0.31
0.60
0.64
0.28
-0.44
-1.33
-2.09
-2.44
-2.21
-1.45
-0.40
0.58
1.20
1.31
1.01
0.59
0.34
0.44
0.83
1.28
1.51
1.35
0.79
0.02
-0.70
-1.14
-1.19
-0.85
-0.22
0.54
1.26
1.78
2.03
2.00
1.78
1.48
1.21
1.00
0.77
0.41
-0.13
-0.80
-1.43
-1.80
-1.80
-1.47
-0.96
-0.46
-0.09
0.13
0.26
0.35
0.40
0.35
0.19
-0.06
-0.30
-0.41
-0.33
-0.13
0.07
0.14
0.04
-0.20
-0.43
-0.53
-0.41
-0.10
0.32
0.73
1.01
1.08
0.90
0.51
0.02
-0.39
-0.58
-0.46
-0.06
0.48
0.96
1.23
1.18
0.81
0.22
-0.48
-1.14
-1.61
-1.79
-1.64
-1.20
-0.60
-0.03
0.33
0.34
0.00
-0.56
-1.14
-1.49
-1.45
-1.00
-0.26
0.52
1.05
1.16
0.83
0.21
-0.42
-0.77
-0.72
-0.29
0.31
0.82
1.07
0.98
0.65
0.25
-0.09
-0.28
-0.37
-0.41
-0.45
-0.48
-0.46
-0.37
-0.22
-0.07
-0.02
-0.09
-0.27
-0.45
-0.54
-0.45
-0.21
0.10
0.34
0.38
0.20
-0.16
-0.55
-0.83
-0.94
-0.88
-0.77
-0.69
-0.69
-0.75
-0.79
-0.79
-0.74
-0.73
-0.78
-0.89
-1.01
-1.05
-0.97
-0.78
-0.53
-0.26
0.00
0.28
0.60
0.98
1.41
1.82
2.16
2.39
2.49
2.50
2.48
2.50
2.60
2.78
3.01
3.22
3.35
3.35
3.23
2.99
2.67
2.26
1.74
1.08
0.26
-0.69
-1.63
-2.33
-2.57
-2.24
-1.40
-0.34
0.56
0.96
0.69
-0.13
-1.17
-2.03
-2.44
-2.31
-1.78
-1.11
-0.54
-0.21
-0.11
-0.14
-0.20
-0.23
-0.22
-0.21
-0.19
-0.11
0.08
0.42
0.85
1.28
1.56
1.59
1.39
1.05
0.73
0.58
0.64
0.82
0.99
0.98
0.70
0.16
-0.55
-1.27
-1.86
-2.24
-2.36
-2.25
-1.98
-1.66
-1.38
-1.23
-1.18
-1.18
-1.13
-0.98
-0.76
-0.54
-0.45
-0.52
-0.71
-0.94
-1.10
-1.15
-1.10
-0.99
-0.84
-0.62
-0.33
0.00
0.30
0.45
0.39
0.16
-0.13
-0.30
-0.24
0.08
0.60
1.18
1.68
2.01
2.14
2.07
1.84
1.51
1.13
0.77
0.52
0.39
0.40
0.51
0.66
0.80
0.90
0.92
0.82
0.61
0.28
-0.09
-0.40
-0.61
-0.73
-0.84
-1.02
-1.27
-1.52
-1.61
-1.45
-1.08
-0.66
-0.40
-0.42
-0.70
-1.05
-1.26
-1.22
-0.96
-0.64
-0.46
-0.49
-0.68
-0.89
-0.96
-0.86
-0.65
-0.44
-0.32
-0.30
-0.31
-0.24
-0.08
0.14
0.34
0.44
0.44
0.39
0.34
0.34
0.40
0.52
0.71
0.99
1.33
1.69
1.95
2.02
1.84
1.48
1.05
0.68
0.45
0.35
0.32
0.29
0.24
0.15
0.05
-0.08
-0.24
-0.43
-0.63
-0.78
-0.85
-0.81
-0.70
-0.60
-0.59
-0.71
-0.96
-1.28
-1.59
-1.81
-1.86
-1.75
-1.53
-1.29
-1.12
-1.02
-0.97
-0.89
-0.71
-0.42
-0.06
0.29
0.56
0.74
0.83
0.87
0.92
0.98
1.07
1.15
1.22
1.27
1.33
1.40
1.48
1.57
1.62
1.60
1.53
1.41
1.26
1.10
0.94
0.77
0.59
0.41
0.24
0.10
-0.02
-0.11
-0.18
-0.21
-0.23
-0.25
-0.33
-0.50
-0.76
-1.04
-1.25
-1.31
-1.16
-0.85
-0.45
-0.06
0.25
0.43
0.49
0.46
0.37
0.25
0.13
0.03
-0.04
-0.07
-0.09
-0.14
-0.25
-0.42
-0.59
-0.69
-0.64
-0.39
0.04
0.59
1.13
1.57
1.80
1.77
1.47
0.93
0.24
-0.47
-1.07
-1.45
-1.54
-1.37
-1.01
-0.59
-0.27
-0.12
-0.16
-0.31
-0.45
-0.48
-0.34
-0.06
0.29
0.62
0.87
0.98
0.93
0.70
0.33
-0.13
-0.58
-0.94
-1.12
-1.13
-1.01
-0.81
-0.56
-0.24
0.15
0.55
0.86
0.95
0.74
0.28
-0.30
-0.80
-1.09
-1.11
-0.91
-0.57
-0.17
0.22
0.55
0.77
0.83
0.74
0.52
0.23
-0.03
-0.21
-0.29
-0.26
-0.16
-0.02
0.09
0.11
0.02
-0.14
-0.28
-0.31
-0.17
0.11
0.42
0.61
0.60
0.35
-0.06
-0.49
-0.82
-0.96
-0.90
-0.71
-0.47
-0.24
-0.08
0.01
-0.01
-0.14
-0.38
-0.66
-0.85
-0.81
-0.48
0.06
0.60
0.85
0.62
-0.08
-1.01
-1.83
-2.28
-2.28
-2.00
-1.73
-1.75
-2.19
-3.00
-4.01
-5.00
-5.76
-6.06
-5.67
-4.46
-2.51
-0.15
2.05
3.48
3.83
3.16
1.90
0.64
-0.17
-0.36
-0.07
0.48
1.09
1.68
2.20
2.61
2.81
2.67
2.15
1.36
0.51
-0.18
-0.53
-0.53
-0.29
0.04
0.26
0.27
0.01
-0.46
-1.06
-1.66
-2.10
-2.28
-2.19
-1.90
-1.52
-1.15
-0.82
-0.51
-0.14
0.30
0.76
1.08
1.14
0.89
0.39
-0.19
-0.67
-0.98
-1.15
-1.29
-1.53
-1.91
-2.42
-2.96
-3.41
-3.71
-3.83
-3.85
-3.88
-4.12
-4.70
-5.70
-7.01
-8.41
-9.57
-10.22
-10.24
-9.71
-8.82
-7.79
-6.80
-5.90
-5.08
-4.32
-3.61
-2.91
-2.18
-1.34
-0.37
0.73
1.89
3.06
4.21
5.41
6.73
8.28
10.09
12.10
14.20
16.20
17.88
19.06
19.55
19.31
18.38
16.96
15.31
13.65
12.19
10.97
10.00
9.18
8.43
7.67
6.84
5.94
5.08
4.39
4.07
4.25
4.95
6.07
7.36
8.54
9.35
9.64
9.32
8.42
6.99
5.17
3.09
0.96
-1.04
-2.79
-4.25
-5.43
-6.40
-7.20
-7.80
-8.16
-8.28
-8.22
-8.09
-8.04
-8.08
-8.13
-8.01
-7.53
-6.66
-5.51
-4.31
-3.28
-2.55
-2.13
-1.96
-1.98
-2.16
-2.48
-2.87
-3.21
-3.38
-3.32
-3.09
-2.86
-2.75
-2.84
-3.05
-3.26
-3.39
-3.44
-3.52
-3.73
-4.09
-4.46
-4.67
-4.57
-4.13
-3.47
-2.73
-2.06
-1.53
-1.15
-0.90
-0.75
-0.66
-0.52
-0.20
0.42
1.32
2.33
3.19
3.66
3.62
3.18
2.52
1.88
1.39
1.06
0.84
0.70
0.63
0.62
0.68
0.73
0.70
0.58
0.39
0.26
0.29
0.54
0.99
1.57
2.14
2.61
2.91
3.06
3.11
3.11
3.07
3.00
2.86
2.68
2.48
2.30
2.17
2.11
2.08
2.07
2.04
1.95
1.79
1.49
1.02
0.38
-0.38
-1.17
-1.90
-2.49
-2.93
-3.21
-3.36
-3.40
-3.34
-3.21
-3.07
-2.93
-2.78
-2.58
-2.29
-1.90
-1.48
-1.14
-1.01
-1.10
-1.37
-1.65
-1.81
-1.78
-1.57
-1.25
-0.89
-0.55
-0.21
0.15
0.52
0.83
1.01
0.98
0.75
0.36
-0.06
-0.40
-0.56
-0.53
-0.37
-0.19
-0.07
-0.07
-0.16
-0.30
-0.42
-0.49
-0.53
-0.61
-0.77
-0.99
-1.20
-1.30
-1.25
-1.09
-0.93
-0.88
-0.97
-1.15
-1.29
-1.29
-1.12
-0.87
-0.68
-0.66
-0.81
-1.01
-1.12
-1.06
-0.80
-0.42
-0.01
0.37
0.69
0.90
0.98
0.89
0.64
0.30
-0.01
-0.19
-0.21
-0.15
-0.10
-0.13
-0.20
-0.24
-0.16
0.03
0.28
0.45
0.48
0.38
0.25
0.20
0.29
0.49
0.69
0.79
0.74
0.58
0.40
0.27
0.24
0.27
0.33
0.38
0.42
0.44
0.45
0.40
0.26
0.03
-0.29
-0.63
-0.92
-1.11
-1.15
-1.05
-0.83
-0.54
-0.24
0.00
0.15
0.18
0.14
0.05
-0.03
-0.07
-0.03
0.12
0.38
0.72
1.07
1.32
1.36
1.15
0.71
0.16
-0.35
-0.69
-0.76
-0.56
-0.20
0.18
0.45
0.57
0.55
0.47
0.39
0.36
0.36
0.34
0.25
0.11
-0.04
-0.13
-0.14
-0.12
-0.16
-0.34
-0.69
-1.11
-1.44
-1.55
-1.36
-0.94
-0.40
0.08
0.39
0.45
0.30
-0.00
-0.34
-0.62
-0.79
-0.86
-0.88
-0.92
-1.04
-1.20
-1.33
-1.37
-1.26
-1.03
-0.71
-0.32
0.16
0.71
1.29
1.83
2.21
2.37
2.29
2.00
1.57
1.07
0.54
0.07
-0.29
-0.45
-0.40
-0.16
0.17
0.50
0.72
0.80
0.74
0.52
0.18
-0.23
-0.64
-0.92
-1.02
-0.94
-0.74
-0.52
-0.34
-0.19
-0.01
0.27
0.59
0.83
0.83
0.49
-0.11
-0.80
-1.38
-1.70
-1.72
-1.51
-1.16
-0.75
-0.32
0.05
0.29
0.32
0.13
-0.19
-0.51
-0.70
-0.70
-0.56
-0.39
-0.30
-0.31
-0.39
-0.44
-0.41
-0.27
-0.03
0.28
0.61
0.87
1.00
0.92
0.67
0.32
0.01
-0.14
-0.14
-0.05
0.01
-0.04
-0.17
-0.26
-0.18
0.10
0.51
0.89
1.14
1.22
1.19
1.12
1.05
0.97
0.82
0.57
0.25
-0.08
-0.35
-0.47
-0.41
-0.16
0.25
0.76
1.24
1.54
1.56
1.23
0.63
-0.11
-0.83
-1.40
-1.74
-1.79
-1.59
-1.16
-0.62
-0.10
0.27
0.40
0.32
0.12
-0.05
-0.12
-0.10
-0.09
-0.18
-0.38
-0.62
-0.75
-0.65
-0.29
0.23
0.76
1.13
1.23
1.04
0.65
0.17
-0.27
-0.56
-0.65
-0.59
-0.44
-0.30
-0.25
-0.33
-0.56
-0.89
-1.25
-1.55
-1.73
-1.72
-1.53
-1.21
-0.85
-0.51
-0.24
0.02
0.33
0.74
1.21
1.63
1.84
1.73
1.29
0.62
-0.10
-0.70
-1.07
-1.18
-1.12
-0.94
-0.66
-0.26
0.30
0.97
1.63
2.07
2.13
1.78
1.14
0.47
-0.01
-0.17
-0.07
0.14
0.27
0.26
0.09
-0.14
-0.36
-0.54
-0.66
-0.73
-0.69
-0.46
0.01
0.67
1.43
2.07
2.43
2.41
2.00
1.33
0.55
-0.17
-0.74
-1.10
-1.29
-1.32
-1.21
-0.94
-0.49
0.12
0.81
1.41
1.75
1.70
1.26
0.54
-0.28
-1.02
-1.54
-1.78
-1.75
-1.54
-1.22
-0.90
-0.66
-0.53
-0.47
-0.44
-0.37
-0.24
-0.10
0.00
0.02
-0.02
-0.09
-0.12
-0.10
-0.06
-0.06
-0.11
-0.19
-0.20
-0.09
0.20
0.59
1.00
1.28
1.33
1.12
0.70
0.21
-0.25
-0.59
-0.84
-1.04
-1.25
-1.45
-1.54
-1.42
-1.04
-0.48
0.09
0.48
0.58
0.40
0.04
-0.34
-0.61
-0.71
-0.66
-0.52
-0.42
-0.45
-0.65
-0.98
-1.27
-1.33
-1.00
-0.25
0.79
1.86
2.72
3.23
3.38
3.27
3.05
2.85
2.69
2.54
2.31
1.93
1.40
0.78
0.19
-0.28
-0.55
-0.64
-0.57
-0.42
-0.24
-0.07
0.06
0.08
-0.07
-0.44
-1.04
-1.80
-2.62
-3.33
-3.82
-4.00
-3.88
-3.52
-3.01
-2.47
-1.99
-1.59
-1.28
-1.01
-0.72
-0.37
0.02
0.41
0.73
0.94
1.03
1.05
1.05
1.06
1.06
0.99
0.84
0.63
0.43
0.34
0.42
0.64
0.93
1.21
1.42
1.58
1.71
1.85
1.98
2.06
2.03
1.87
1.59
1.23
0.82
0.41
0.01
-0.34
-0.60
-0.75
-0.77
-0.68
-0.54
-0.38
-0.28
-0.25
-0.30
-0.40
-0.52
-0.60
-0.60
-0.50
-0.37
-0.26
-0.26
-0.38
-0.57
-0.74
-0.81
-0.79
-0.78
-0.91
-1.26
-1.83
-2.50
-3.13
-3.61
-3.90
-4.06
-4.13
-4.14
-4.05
-3.82
-3.43
-2.94
-2.41
-1.95
-1.61
-1.40
-1.28
-1.18
-1.05
-0.83
-0.52
-0.11
0.34
0.80
1.22
1.57
1.87
2.16
2.48
2.83
3.21
3.55
3.83
4.06
4.29
4.59
4.99
5.46
5.87
6.09
6.02
5.62
4.93
4.04
3.06
2.12
1.30
0.71
0.40
0.37
0.57
0.93
1.33
1.68
1.89
1.87
1.55
0.92
0.01
-1.05
-2.10
-2.98
-3.55
-3.76
-3.59
-3.11
-2.44
-1.72
-1.13
-0.80
-0.77
-0.99
-1.29
-1.49
-1.45
-1.17
-0.75
-0.34
-0.08
-0.06
-0.24
-0.53
-0.83
-1.07
-1.22
-1.25
-1.12
-0.82
-0.32
0.32
0.95
1.42
1.60
1.45
1.05
0.56
0.15
-0.06
-0.03
0.16
0.42
0.61
0.64
0.50
0.24
-0.02
-0.18
-0.22
-0.16
-0.12
-0.17
-0.37
-0.65
-0.91
-1.02
-0.90
-0.53
-0.00
0.54
0.91
0.96
0.62
-0.10
-1.03
-1.97
-2.69
-3.02
-2.88
-2.31
-1.42
-0.35
0.76
1.78
2.58
3.04
3.07
2.63
1.83
0.85
-0.03
-0.59
-0.70
-0.38
0.23
0.94
1.58
2.02
2.22
2.15
1.88
1.49
1.14
0.99
1.11
1.49
1.98
2.36
2.48
2.25
1.72
1.02
0.28
-0.38
-0.92
-1.29
-1.50
-1.54
-1.43
-1.27
-1.20
-1.35
-1.78
-2.41
-3.02
-3.41
-3.41
-3.04
-2.44
-1.80
-1.28
-0.94
-0.73
-0.60
-0.49
-0.43
-0.44
-0.55
-0.71
-0.84
-0.86
-0.68
-0.32
0.13
0.51
0.70
0.64
0.41
0.15
0.03
0.17
0.55
1.05
1.54
1.88
1.99
1.87
1.51
0.96
0.30
-0.35
-0.84
-1.05
-0.98
-0.71
-0.37
-0.10
0.07
0.12
0.05
-0.16
-0.56
-1.11
-1.70
-2.14
-2.22
-1.86
-1.14
-0.31
0.38
0.73
0.70
0.43
0.10
-0.11
-0.11
0.10
0.50
1.03
1.63
2.23
2.73
2.99
2.90
2.41
1.59
0.56
-0.46
-1.29
-1.78
-1.88
-1.64
-1.13
-0.47
0.22
0.87
1.40
1.76
1.89
1.74
1.32
0.68
-0.09
-0.85
-1.46
-1.83
-1.91
-1.69
-1.26
-0.70
-0.16
0.22
0.38
0.32
0.13
-0.04
-0.11
-0.02
0.19
0.50
0.86
1.26
1.67
2.01
2.19
2.10
1.70
1.02
0.17
-0.70
-1.46
-2.00
-2.29
-2.35
-2.24
-2.03
-1.80
-1.59
-1.43
-1.32
-1.25
-1.21
-1.22
-1.28
-1.37
-1.43
-1.38
-1.13
-0.60
0.18
1.12
2.06
2.87
3.48
3.94
4.34
4.76
5.18
5.50
5.53
5.14
4.23
2.83
1.06
-0.84
-2.59
-3.89
-4.46
-4.16
-3.03
-1.31
0.56
2.11
2.94
2.91
2.11
0.89
-0.37
-1.30
-1.76
-1.78
-1.50
-1.11
-0.73
-0.41
-0.19
-0.07
-0.08
-0.22
-0.45
-0.73
-0.99
-1.18
-1.30
-1.35
-1.37
-1.39
-1.41
-1.43
-1.43
-1.42
-1.39
-1.35
-1.32
-1.32
-1.35
-1.41
-1.43
-1.37
-1.21
-0.98
-0.72
-0.49
-0.31
-0.16
-0.04
0.08
0.17
0.20
0.20
0.21
0.31
0.53
0.81
1.05
1.12
0.98
0.70
0.43
0.35
0.56
0.99
1.48
1.82
1.86
1.55
0.98
0.28
-0.40
-0.94
-1.28
-1.35
-1.13
-0.65
-0.04
0.51
0.81
0.71
0.21
-0.58
-1.45
-2.24
-2.85
-3.21
-3.30
-3.10
-2.60
-1.82
-0.89
-0.02
0.56
0.66
0.23
-0.61
-1.62
-2.49
-2.95
-2.90
-2.37
-1.57
-0.76
-0.25
-0.18
-0.60
-1.39
-2.36
-3.30
-4.03
-4.46
-4.54
-4.29
-3.73
-2.89
-1.83
-0.59
0.77
2.21
3.64
4.99
6.15
6.99
7.34
7.13
6.36
5.10
3.53
1.83
0.19
-1.21
-2.25
-2.93
-3.31
-3.56
-3.84
-4.21
-4.54
-4.59
-4.09
-2.90
-1.09
1.10
3.30
5.15
6.37
6.78
6.39
5.39
4.18
3.21
2.88
3.32
4.44
5.88
7.19
8.00
8.06
7.34
5.95
4.14
2.25
0.63
-0.45
-0.91
-0.84
-0.48
-0.10
0.11
0.12
-0.03
-0.24
-0.43
-0.59
-0.75
-0.92
-1.13
-1.34
-1.54
-1.75
-2.01
-2.39
-2.87
-3.33
-3.61
-3.55
-3.15
-2.53
-1.92
-1.48
-1.21
-0.96
-0.52
0.23
1.20
2.13
2.76
2.94
2.77
2.49
2.34
2.39
2.52
2.51
2.24
1.76
1.22
0.81
0.56
0.35
0.02
-0.53
-1.19
-1.76
-2.08
-2.12
-2.01
-1.96
-2.10
-2.37
-2.64
-2.75
-2.64
-2.35
-1.99
-1.65
-1.37
-1.16
-1.00
-0.86
-0.73
-0.60
-0.47
-0.31
-0.14
0.05
0.23
0.36
0.40
0.31
0.05
-0.34
-0.79
-1.15
-1.31
-1.21
-0.91
-0.50
-0.14
0.06
0.04
-0.20
-0.58
-0.99
-1.29
-1.35
-1.10
-0.59
0.03
0.56
0.83
0.81
0.57
0.28
0.11
0.12
0.28
0.48
0.58
0.49
0.22
-0.13
-0.43
-0.55
-0.45
-0.16
0.21
0.52
0.68
0.64
0.43
0.13
-0.18
-0.42
-0.55
-0.57
-0.53
-0.52
-0.57
-0.67
-0.78
-0.79
-0.67
-0.42
-0.07
0.30
0.61
0.80
0.84
0.71
0.47
0.20
0.00
-0.11
-0.16
-0.23
-0.38
-0.58
-0.76
-0.80
-0.67
-0.41
-0.10
0.17
0.36
0.51
0.63
0.71
0.70
0.56
0.27
-0.10
-0.50
-0.85
-1.13
-1.29
-1.32
-1.15
-0.78
-0.22
0.43
1.00
1.34
1.37
1.09
0.64
0.18
-0.17
-0.35
-0.39
-0.36
-0.30
-0.24
-0.14
-0.02
0.10
0.15
0.06
-0.17
-0.42
-0.55
-0.41
0.03
0.65
1.25
1.62
1.65
1.36
0.92
0.48
0.17
0.03
0.01
0.06
0.12
0.16
0.14
0.02
-0.23
-0.56
-0.89
-1.09
-1.07
-0.79
-0.32
0.24
0.76
1.16
1.38
1.39
1.20
0.87
0.46
0.05
-0.32
-0.63
-0.90
-1.10
-1.21
-1.22
-1.10
-0.89
-0.63
-0.33
-0.00
0.34
0.64
0.82
0.81
0.61
0.31
0.04
-0.12
-0.14
-0.07
0.01
0.08
0.13
0.18
0.21
0.21
0.14
0.00
-0.17
-0.36
-0.51
-0.62
-0.63
-0.48
-0.11
0.43
1.02
1.44
1.47
1.05
0.26
-0.66
-1.45
-1.87
-1.84
-1.42
-0.77
-0.08
0.47
0.78
0.80
0.53
0.01
-0.63
-1.26
-1.69
-1.77
-1.42
-0.69
0.26
1.19
1.86
2.15
2.01
1.54
0.91
0.26
-0.27
-0.61
-0.72
-0.62
-0.33
0.07
0.50
0.84
0.96
0.80
0.36
-0.26
-0.91
-1.43
-1.70
-1.69
-1.44
-1.04
-0.59
-0.19
0.08
0.18
0.09
-0.15
-0.48
-0.80
-1.00
-0.99
-0.72
-0.20
0.48
1.16
1.67
1.87
1.68
1.19
0.57
0.02
-0.31
-0.37
-0.20
0.08
0.33
0.46
0.45
0.29
0.05
-0.23
-0.50
-0.71
-0.84
-0.89
-0.87
-0.80
-0.72
-0.65
-0.59
-0.54
-0.48
-0.43
-0.36
-0.28
-0.17
-0.02
0.15
0.29
0.37
0.37
0.29
0.19
0.12
0.11
0.14
0.17
0.18
0.17
0.20
0.31
0.51
0.74
0.89
0.90
0.79
0.63
0.52
0.49
0.52
0.51
0.40
0.21
0.04
0.02
0.21
0.56
0.92
1.13
1.09
0.82
0.42
-0.00
-0.37
-0.66
-0.84
-0.87
-0.71
-0.33
0.21
0.77
1.14
1.20
0.91
0.33
-0.35
-0.96
-1.34
-1.39
-1.09
-0.49
0.29
1.04
1.55
1.64
1.30
0.64
-0.07
-0.58
-0.73
-0.52
-0.05
0.50
1.01
1.39
1.58
1.55
1.27
0.75
0.06
-0.69
-1.36
-1.79
-1.93
-1.76
-1.37
-0.85
-0.35
0.05
0.27
0.29
0.15
-0.11
-0.42
-0.73
-1.03
-1.31
-1.58
-1.79
-1.95
-2.01
-1.98
-1.83
-1.55
-1.18
-0.77
-0.33
0.11
0.58
1.14
1.83
2.60
3.33
3.83
3.90
3.44
2.50
1.27
0.03
-0.95
-1.49
-1.56
-1.24
-0.68
-0.05
0.54
1.01
1.28
1.32
1.10
0.66
0.08
-0.49
-0.88
-1.00
-0.89
-0.62
-0.35
-0.21
-0.23
-0.42
-0.70
-1.00
-1.24
-1.40
-1.42
-1.31
-1.05
-0.67
-0.22
0.20
0.51
0.63
0.56
0.35
0.08
-0.17
-0.37
-0.51
-0.62
-0.72
-0.77
-0.72
-0.52
-0.15
0.33
0.83
1.25
1.51
1.59
1.53
1.41
1.30
1.23
1.18
1.09
0.88
0.55
0.13
-0.27
-0.56
-0.69
-0.66
-0.54
-0.43
-0.38
-0.41
-0.50
-0.57
-0.58
-0.50
-0.30
-0.02
0.29
0.57
0.70
0.63
0.34
-0.10
-0.58
-0.97
-1.20
-1.24
-1.16
-0.99
-0.75
-0.47
-0.16
0.10
0.25
0.21
-0.00
-0.31
-0.61
-0.79
-0.82
-0.74
-0.59
-0.42
-0.22
0.02
0.30
0.57
0.76
0.78
0.59
0.22
-0.21
-0.60
-0.81
-0.79
-0.56
-0.19
0.23
0.59
0.79
0.79
0.59
0.22
-0.20
-0.55
-0.73
-0.71
-0.52
-0.22
0.12
0.42
0.69
0.91
1.09
1.23
1.28
1.22
1.05
0.79
0.49
0.21
0.01
-0.10
-0.12
-0.06
0.05
0.22
0.44
0.71
0.98
1.17
1.19
1.00
0.62
0.17
-0.20
-0.38
-0.32
-0.10
0.16
0.29
0.22
-0.03
-0.36
-0.63
-0.74
-0.66
-0.46
-0.23
-0.07
-0.04
-0.12
-0.30
-0.52
-0.71
-0.78
-0.67
-0.33
0.22
0.92
1.65
2.27
2.66
2.79
2.65
2.31
1.88
1.47
1.15
0.95
0.81
0.64
0.35
-0.09
-0.66
-1.26
-1.80
-2.18
-2.36
-2.32
-2.07
-1.67
-1.20
-0.80
-0.60
-0.65
-0.93
-1.29
-1.53
-1.48
-1.10
-0.50
0.13
0.57
0.74
0.65
0.42
0.18
-0.03
-0.19
-0.34
-0.46
-0.52
-0.48
-0.36
-0.20
-0.08
-0.05
-0.08
-0.10
-0.06
0.09
0.31
0.54
0.71
0.82
0.88
0.91
0.93
0.92
0.86
0.71
0.46
0.12
-0.27
-0.69
-1.11
-1.52
-1.92
-2.28
-2.55
-2.69
-2.68
-2.54
-2.34
-2.16
-2.05
-1.99
-1.95
-1.86
-1.67
-1.39
-1.05
-0.70
-0.40
-0.18
-0.04
0.05
0.14
0.27
0.46
0.69
0.92
1.10
1.20
1.21
1.17
1.12
1.09
1.08
1.11
1.21
1.40
1.72
2.16
2.70
3.28
3.79
4.15
4.29
4.16
3.76
3.11
2.27
1.32
0.36
-0.51
-1.21
-1.72
-2.06
-2.26
-2.31
-2.19
-1.89
-1.45
-0.96
-0.59
-0.49
-0.73
-1.25
-1.87
-2.32
-2.37
-1.89
-0.94
0.30
1.56
2.57
3.14
3.17
2.68
1.75
0.52
-0.80
-1.96
-2.70
-2.84
-2.35
-1.41
-0.30
0.65
1.24
1.47
1.45
1.32
1.19
1.07
0.92
0.73
0.51
0.32
0.20
0.14
0.08
-0.04
-0.24
-0.45
-0.56
-0.46
-0.13
0.33
0.75
0.96
0.86
0.50
0.03
-0.39
-0.68
-0.83
-0.92
-1.00
-1.06
-1.06
-0.92
-0.68
-0.42
-0.30
-0.41
-0.75
-1.21
-1.64
-1.89
-1.92
-1.71
-1.34
-0.85
-0.29
0.31
0.91
1.44
1.82
1.96
1.79
1.33
0.64
-0.13
-0.85
-1.39
-1.68
-1.68
-1.41
-0.87
-0.10
0.82
1.76
2.52
2.91
2.83
2.30
1.50
0.65
-0.05
-0.50
-0.70
-0.72
-0.65
-0.55
-0.43
-0.32
-0.25
-0.25
-0.36
-0.54
-0.72
-0.80
-0.75
-0.57
-0.35
-0.21
-0.22
-0.41
-0.74
-1.16
-1.58
-1.94
-2.16
-2.20
-2.04
-1.71
-1.29
-0.87
-0.57
-0.44
-0.47
-0.62
-0.75
-0.76
-0.60
-0.27
0.16
0.60
0.96
1.23
1.41
1.54
1.64
1.72
1.75
1.69
1.54
1.33
1.12
0.98
0.93
1.00
1.15
1.36
1.60
1.85
2.09
2.32
2.51
2.63
2.65
2.59
2.44
2.23
1.99
1.71
1.40
1.10
0.82
0.60
0.47
0.45
0.51
0.62
0.75
0.88
0.97
0.99
0.87
0.57
0.08
-0.57
-1.29
-1.93
-2.40
-2.63
-2.66
-2.57
-2.46
-2.38
-2.34
-2.30
-2.18
-1.94
-1.58
-1.16
-0.77
-0.46
-0.29
-0.23
-0.23
-0.27
-0.30
-0.35
-0.44
-0.60
-0.82
-1.06
-1.25
-1.31
-1.18
-0.82
-0.29
0.31
0.85
1.21
1.37
1.35
1.26
1.18
1.14
1.12
1.06
0.94
0.72
0.46
0.21
0.02
-0.11
-0.17
-0.17
-0.12
-0.05
0.02
0.06
0.02
-0.10
-0.28
-0.45
-0.53
-0.48
-0.32
-0.11
0.05
0.08
-0.05
-0.32
-0.67
-1.02
-1.30
-1.45
-1.47
-1.41
-1.31
-1.19
-1.05
-0.90
-0.75
-0.62
-0.52
-0.46
-0.39
-0.27
-0.08
0.17
0.42
0.62
0.70
0.67
0.52
0.27
-0.05
-0.38
-0.64
-0.74
-0.67
-0.46
-0.24
-0.13
-0.20
-0.42
-0.70
-0.92
-1.02
-0.98
-0.85
-0.63
-0.33
0.07
0.55
1.03
1.40
1.56
1.42
1.04
0.54
0.07
-0.25
-0.42
-0.50
-0.56
-0.66
-0.74
-0.73
-0.58
-0.29
0.07
0.40
0.64
0.74
0.74
0.66
0.55
0.43
0.32
0.27
0.29
0.38
0.51
0.62
0.66
0.65
0.63
0.62
0.64
0.66
0.65
0.58
0.46
0.34
0.26
0.26
0.30
0.33
0.30
0.19
0.03
-0.12
-0.20
-0.19
-0.09
0.07
0.26
0.43
0.56
0.59
0.54
0.43
0.32
0.26
0.29
0.35
0.34
0.19
-0.15
-0.62
-1.09
-1.47
-1.67
-1.71
-1.60
-1.39
-1.08
-0.70
-0.28
0.11
0.39
0.53
0.55
0.52
0.57
0.72
0.96
1.17
1.25
1.13
0.87
0.58
0.39
0.39
0.56
0.80
1.04
1.21
1.35
1.49
1.69
1.92
2.13
2.21
2.12
1.82
1.37
0.84
0.35
-0.03
-0.28
-0.43
-0.55
-0.67
-0.82
-0.95
-1.04
-1.07
-1.11
-1.22
-1.47
-1.82
-2.16
-2.36
-2.33
-2.08
-1.71
-1.31
-0.97
-0.67
-0.40
-0.19
-0.09
-0.22
-0.58
-1.09
-1.57
-1.84
-1.82
-1.59
-1.29
-1.09
-1.07
-1.19
-1.36
-1.54
-1.73
-1.96
-2.26
-2.60
-2.86
-2.96
-2.87
-2.64
-2.36
-2.18
-2.22
-2.55
-3.21
-4.11
-5.07
-5.84
-6.14
-5.72
-4.45
-2.40
0.21
2.95
5.36
7.09
7.94
8.00
7.51
6.77
5.99
5.26
4.57
3.86
3.12
2.41
1.80
1.33
1.04
0.96
1.15
1.66
2.54
3.75
5.14
6.49
7.54
8.10
8.04
7.37
6.23
4.83
3.43
2.23
1.36
0.84
0.60
0.51
0.47
0.38
0.15
-0.22
-0.72
-1.27
-1.78
-2.13
-2.26
-2.19
-2.00
-1.79
-1.65
-1.60
-1.61
-1.63
-1.59
-1.50
-1.39
-1.33
-1.36
-1.52
-1.75
-2.00
-2.19
-2.27
-2.23
-2.05
-1.77
-1.41
-1.03
-0.70
-0.46
-0.34
-0.31
-0.34
-0.40
-0.49
-0.62
-0.80
-0.97
-1.04
-0.94
-0.65
-0.25
0.11
0.27
0.14
-0.26
-0.80
-1.33
-1.69
-1.81
-1.67
-1.34
-0.92
-0.47
-0.03
0.37
0.75
1.10
1.37
1.49
1.39
1.05
0.53
-0.08
-0.63
-1.02
-1.19
-1.15
-0.93
-0.60
-0.24
0.06
0.27
0.36
0.35
0.29
0.24
0.21
0.17
0.09
-0.04
-0.20
-0.33
-0.38
-0.32
-0.15
0.06
0.27
0.41
0.45
0.38
0.24
0.09
-0.02
-0.08
-0.09
-0.09
-0.10
-0.14
-0.18
-0.22
-0.25
-0.31
-0.41
-0.54
-0.68
-0.78
-0.82
-0.83
-0.81
-0.73
-0.57
-0.28
0.11
0.51
0.80
0.87
0.72
0.42
0.12
-0.04
-0.00
0.23
0.56
0.86
1.02
0.96
0.65
0.14
-0.49
-1.10
-1.56
-1.79
-1.73
-1.45
-1.05
-0.66
-0.37
-0.20
-0.14
-0.13
-0.15
-0.20
-0.31
-0.51
-0.74
-0.91
-0.90
-0.67
-0.24
0.25
0.67
0.95
1.06
1.07
1.03
0.97
0.88
0.71
0.44
0.09
-0.24
-0.49
-0.60
-0.59
-0.52
-0.45
-0.40
-0.35
-0.24
-0.03
0.27
0.60
0.88
1.00
0.92
0.66
0.25
-0.21
-0.65
-0.98
-1.15
-1.10
-0.84
-0.42
0.05
0.44
0.63
0.60
0.39
0.13
-0.06
-0.11
-0.02
0.14
0.28
0.37
0.40
0.39
0.35
0.29
0.22
0.15
0.13
0.19
0.33
0.49
0.58
0.49
0.18
-0.28
-0.77
-1.16
-1.33
-1.26
-1.02
-0.70
-0.36
-0.04
0.24
0.50
0.72
0.87
0.90
0.82
0.62
0.38
0.15
0.01
-0.02
0.06
0.21
0.38
0.48
0.48
0.37
0.18
-0.02
-0.19
-0.27
-0.29
-0.26
-0.19
-0.10
0.05
0.26
0.49
0.67
0.69
0.52
0.19
-0.20
-0.49
-0.60
-0.52
-0.36
-0.25
-0.28
-0.45
-0.63
-0.71
-0.58
-0.25
0.16
0.51
0.68
0.64
0.46
0.24
0.06
-0.07
-0.19
-0.31
-0.39
-0.38
-0.25
-0.03
0.17
0.24
0.14
-0.10
-0.34
-0.46
-0.43
-0.25
-0.04
0.15
0.24
0.26
0.19
0.10
0.02
0.02
0.16
0.43
0.78
1.08
1.20
1.08
0.71
0.16
-0.43
-0.91
-1.20
-1.25
-1.09
-0.82
-0.52
-0.25
-0.05
0.09
0.15
0.12
-0.04
-0.35
-0.75
-1.14
-1.39
-1.41
-1.21
-0.88
-0.55
-0.33
-0.26
-0.29
-0.37
-0.45
-0.53
-0.64
-0.76
-0.87
-0.91
-0.81
-0.55
-0.16
0.29
0.69
0.96
1.04
0.92
0.66
0.32
-0.03
-0.32
-0.52
-0.62
-0.58
-0.39
-0.03
0.50
1.13
1.76
2.33
2.80
3.15
3.38
3.46
3.30
2.84
2.09
1.14
0.17
-0.69
-1.36
-1.84
-2.17
-2.36
-2.46
-2.50
-2.63
-3.01
-3.79
-4.94
-6.26
-7.41
-8.07
-8.02
-7.20
-5.66
-3.48
-0.80
2.15
4.99
7.25
8.49
8.49
7.39
5.58
3.60
1.89
0.70
0.14
0.22
0.90
2.06
3.42
4.60
5.16
4.82
3.56
1.64
-0.50
-2.46
-4.00
-5.06
-5.69
-6.03
-6.19
-6.24
-6.23
-6.21
-6.19
-6.15
-6.02
-5.72
-5.14
-4.24
-3.06
-1.75
-0.48
0.62
1.52
2.27
3.01
3.80
4.67
5.56
6.41
7.18
7.86
8.41
8.75
8.73
8.25
7.31
6.05
4.74
3.64
2.92
2.61
2.58
2.64
2.57
2.23
1.61
0.82
0.06
-0.46
-0.57
-0.27
0.32
1.01
1.55
1.80
1.67
1.20
0.49
-0.31
-1.02
-1.52
-1.73
-1.65
-1.38
-1.04
-0.73
-0.51
-0.34
-0.17
0.05
0.32
0.56
0.67
0.56
0.18
-0.46
-1.25
-2.05
-2.73
-3.20
-3.45
-3.60
-3.72
-3.88
-4.03
-4.11
-4.03
-3.78
-3.43
-3.04
-2.69
-2.38
-2.08
-1.77
-1.45
-1.15
-0.88
-0.63
-0.39
-0.13
0.09
0.26
0.36
0.44
0.57
0.80
1.09
1.36
1.51
1.51
1.41
1.32
1.36
1.56
1.88
2.22
2.45
2.50
2.33
2.00
1.57
1.18
0.92
0.83
0.85
0.90
0.86
0.67
0.38
0.09
-0.11
-0.22
-0.30
-0.42
-0.66
-0.96
-1.23
-1.39
-1.40
-1.30
-1.15
-0.99
-0.81
-0.60
-0.36
-0.15
-0.04
-0.07
-0.23
-0.43
-0.60
-0.68
-0.67
-0.60
-0.52
-0.46
-0.46
-0.55
-0.71
-0.88
-0.96
-0.87
-0.57
-0.14
0.26
0.50
0.48
0.25
-0.05
-0.23
-0.17
0.11
0.49
0.81
0.93
0.83
0.60
0.35
0.18
0.09
0.02
-0.10
-0.25
-0.35
-0.26
0.04
0.47
0.88
1.07
0.98
0.67
0.30
0.01
-0.18
-0.34
-0.56
-0.84
-1.09
-1.15
-0.94
-0.52
-0.03
0.35
0.53
0.51
0.39
0.27
0.15
0.02
-0.15
-0.34
-0.50
-0.54
-0.45
-0.28
-0.12
-0.05
-0.05
-0.03
0.12
0.46
0.97
1.52
1.95
2.16
2.12
1.84
1.41
0.88
0.33
-0.16
-0.51
-0.65
-0.56
-0.28
0.10
0.47
0.77
0.92
0.93
0.79
0.58
0.37
0.24
0.25
0.33
0.40
0.33
0.07
-0.34
-0.77
-1.08
-1.23
-1.22
-1.15
-1.07
-1.03
-1.02
-1.01
-1.01
-1.05
-1.15
-1.28
-1.40
-1.44
-1.35
-1.12
-0.81
-0.49
-0.29
-0.25
-0.36
-0.54
-0.62
-0.49
-0.07
0.57
1.26
1.84
2.16
2.20
2.00
1.63
1.20
0.76
0.39
0.14
0.03
0.06
0.17
0.25
0.23
0.10
-0.12
-0.35
-0.55
-0.69
-0.81
-0.90
-0.94
-0.87
-0.70
-0.45
-0.24
-0.17
-0.31
-0.59
-0.88
-1.02
-0.90
-0.52
0.01
0.50
0.78
0.74
0.41
-0.10
-0.61
-0.96
-1.06
-0.94
-0.67
-0.38
-0.14
0.03
0.15
0.25
0.34
0.44
0.53
0.61
0.70
0.79
0.87
0.92
0.87
0.72
0.50
0.29
0.17
0.17
0.29
0.45
0.59
0.64
0.58
0.44
0.24
0.00
-0.26
-0.51
-0.73
-0.85
-0.80
-0.55
-0.12
0.42
0.95
1.34
1.47
1.31
0.88
0.31
-0.28
-0.73
-1.03
-1.20
-1.37
-1.64
-2.02
-2.42
-2.67
-2.62
-2.20
-1.45
-0.54
0.36
1.12
1.66
1.98
2.10
2.04
1.84
1.54
1.23
1.00
0.88
0.83
0.76
0.52
0.07
-0.53
-1.10
-1.45
-1.43
-1.07
-0.50
0.09
0.53
0.77
0.84
0.81
0.70
0.49
0.15
-0.29
-0.74
-1.07
-1.18
-1.07
-0.86
-0.72
-0.78
-1.07
-1.46
-1.76
-1.80
-1.49
-0.85
-0.03
0.81
1.51
1.93
1.96
1.61
0.95
0.11
-0.71
-1.38
-1.81
-1.99
-1.97
-1.79
-1.49
-1.07
-0.54
0.06
0.60
0.97
1.04
0.74
0.11
-0.70
-1.54
-2.22
-2.67
-2.88
-2.93
-2.90
-2.84
-2.72
-2.50
-2.16
-1.79
-1.48
-1.30
-1.22
-1.10
-0.79
-0.22
0.53
1.27
1.84
2.19
2.38
2.55
2.76
2.96
3.07
2.97
2.68
2.34
2.13
2.23
2.70
3.48
4.46
5.49
6.48
7.36
8.07
8.54
8.66
8.32
7.46
6.10
4.45
2.76
1.31
0.24
-0.43
-0.81
-1.08
-1.39
-1.78
-2.24
-2.69
-3.06
-3.32
-3.49
-3.59
-3.64
-3.64
-3.55
-3.33
-2.96
-2.48
-1.97
-1.53
-1.24
-1.11
-1.14
-1.26
-1.42
-1.57
-1.63
-1.57
-1.38
-1.13
-0.90
-0.79
-0.83
-0.96
-1.05
-1.03
-0.86
-0.65
-0.52
-0.56
-0.76
-0.98
-1.07
-0.91
-0.54
-0.07
0.36
0.63
0.73
0.71
0.64
0.58
0.53
0.46
0.33
0.17
0.03
-0.04
-0.03
0.05
0.14
0.19
0.18
0.15
0.18
0.31
0.56
0.86
1.14
1.36
1.51
1.65
1.81
1.95
1.97
1.76
1.25
0.49
-0.39
-1.17
-1.67
-1.79
-1.54
-1.02
-0.36
0.28
0.77
1.04
1.03
0.77
0.32
-0.20
-0.68
-1.01
-1.13
-1.07
-0.90
-0.71
-0.61
-0.62
-0.73
-0.85
-0.91
-0.89
-0.79
-0.68
-0.63
-0.70
-0.89
-1.17
-1.46
-1.68
-1.71
-1.50
-1.09
-0.58
-0.12
0.16
0.25
0.22
0.18
0.26
0.49
0.84
1.19
1.47
1.62
1.61
1.43
1.10
0.64
0.15
-0.28
-0.55
-0.62
-0.50
-0.26
0.02
0.23
0.31
0.21
-0.06
-0.46
-0.87
-1.14
-1.15
-0.86
-0.34
0.25
0.72
0.93
0.85
0.55
0.12
-0.33
-0.75
-1.12
-1.43
-1.68
-1.82
-1.83
-1.73
-1.55
-1.34
-1.15
-0.97
-0.77
-0.49
-0.14
0.24
0.60
0.86
1.00
1.05
1.05
1.04
1.06
1.09
1.13
1.19
1.27
1.35
1.39
1.35
1.17
0.84
0.43
0.04
-0.20
-0.23
-0.03
0.34
0.77
1.18
1.50
1.71
1.82
1.81
1.68
1.43
1.09
0.75
0.47
0.30
0.27
0.33
0.41
0.44
0.39
0.22
-0.03
-0.31
-0.56
-0.71
-0.72
-0.62
-0.51
-0.50
-0.66
-0.95
-1.28
-1.52
-1.62
-1.58
-1.46
-1.35
-1.24
-1.12
-0.94
-0.72
-0.52
-0.42
-0.47
-0.61
-0.78
-0.87
-0.88
-0.84
-0.85
-0.95
-1.11
-1.25
-1.24
-1.04
-0.70
-0.33
-0.06
0.07
0.11
0.15
0.29
0.53
0.79
0.95
0.92
0.72
0.43
0.21
0.18
0.34
0.59
0.78
0.82
0.66
0.38
0.09
-0.13
-0.23
-0.23
-0.23
-0.29
-0.43
-0.65
-0.88
-1.04
-1.08
-0.94
-0.64
-0.21
0.25
0.65
0.93
1.09
1.13
1.08
0.99
0.87
0.76
0.70
0.78
1.02
1.39
1.75
1.94
1.84
1.43
0.83
0.24
-0.17
-0.32
-0.28
-0.19
-0.18
-0.30
-0.49
-0.64
-0.63
-0.39
0.03
0.54
0.99
1.24
1.23
0.98
0.60
0.20
-0.11
-0.29
-0.33
-0.28
-0.14
0.07
0.33
0.62
0.84
0.94
0.89
0.74
0.58
0.47
0.45
0.51
0.57
0.57
0.48
0.31
0.12
-0.03
-0.10
-0.07
0.05
0.21
0.38
0.52
0.63
0.70
0.73
0.68
0.54
0.27
-0.07
-0.41
-0.68
-0.86
-0.98
-1.11
-1.30
-1.56
-1.83
-2.03
-2.10
-2.04
-1.90
-1.78
-1.75
-1.81
-1.89
-1.90
-1.78
-1.54
-1.25
-1.03
-0.99
-1.15
-1.42
-1.71
-1.90
-1.94
-1.89
-1.81
-1.75
-1.69
-1.55
-1.29
-0.92
-0.53
-0.23
-0.09
-0.06
-0.04
0.09
0.37
0.74
1.10
1.34
1.41
1.35
1.23
1.11
1.03
0.98
0.96
0.93
0.87
0.79
0.71
0.66
0.68
0.80
0.98
1.15
1.20
1.07
0.76
0.36
-0.00
-0.22
-0.26
-0.14
0.00
0.07
0.02
-0.09
-0.16
-0.07
0.19
0.58
0.96
1.21
1.28
1.22
1.07
0.90
0.72
0.51
0.30
0.12
0.03
0.08
0.24
0.46
0.64
0.72
0.70
0.60
0.45
0.28
0.09
-0.14
-0.39
-0.66
-0.89
-1.05
-1.12
-1.09
-0.96
-0.75
-0.45
-0.09
0.28
0.60
0.79
0.77
0.56
0.21
-0.18
-0.50
-0.64
-0.61
-0.45
-0.26
-0.14
-0.11
-0.16
-0.20
-0.16
-0.00
0.25
0.49
0.61
0.52
0.21
-0.22
-0.63
-0.87
-0.85
-0.58
-0.19
0.17
0.37
0.39
0.30
0.23
0.27
0.43
0.61
0.72
0.71
0.59
0.47
0.43
0.48
0.57
0.62
0.55
0.37
0.14
-0.05
-0.16
-0.20
-0.22
-0.28
-0.35
-0.40
-0.36
-0.20
0.03
0.25
0.38
0.39
0.29
0.16
0.02
-0.08
-0.14
-0.15
-0.11
-0.03
0.04
0.04
-0.05
-0.22
-0.39
-0.51
-0.52
-0.48
-0.43
-0.45
-0.53
-0.62
-0.63
-0.56
-0.45
-0.35
-0.32
-0.35
-0.40
-0.39
-0.29
-0.11
0.11
0.34
0.52
0.62
0.63
0.55
0.41
0.29
0.23
0.28
0.42
0.58
0.68
0.64
0.47
0.20
-0.10
-0.36
-0.54
-0.57
-0.45
-0.15
0.29
0.76
1.15
1.30
1.15
0.72
0.13
-0.44
-0.84
-0.99
-0.93
-0.74
-0.54
-0.43
-0.42
-0.48
-0.51
-0.47
-0.32
-0.10
0.13
0.31
0.41
0.44
0.45
0.46
0.50
0.55
0.58
0.59
0.56
0.50
0.41
0.28
0.10
-0.10
-0.28
-0.35
-0.25
-0.00
0.29
0.49
0.47
0.21
-0.23
-0.69
-0.98
-1.01
-0.74
-0.27
0.23
0.58
0.67
0.49
0.14
-0.18
-0.34
-0.26
0.00
0.30
0.51
0.55
0.42
0.20
-0.06
-0.31
-0.53
-0.68
-0.71
-0.59
-0.33
-0.01
0.25
0.36
0.31
0.15
0.00
-0.06
-0.01
0.13
0.31
0.45
0.49
0.38
0.09
-0.35
-0.81
-1.13
-1.19
-0.95
-0.53
-0.11
0.15
0.20
0.13
0.07
0.08
0.14
0.13
-0.01
-0.26
-0.49
-0.54
-0.34
0.05
0.48
0.80
0.91
0.84
0.67
0.49
0.31
0.12
-0.11
-0.38
-0.62
-0.74
-0.69
-0.46
-0.15
0.14
0.31
0.29
0.13
-0.10
-0.29
-0.37
-0.29
-0.09
0.19
0.44
0.59
0.60
0.50
0.35
0.23
0.18
0.19
0.20
0.16
0.07
-0.01
-0.03
0.04
0.16
0.26
0.26
0.12
-0.11
-0.34
-0.49
-0.51
-0.46
-0.37
-0.34
-0.38
-0.47
-0.55
-0.56
-0.48
-0.33
-0.16
-0.04
-0.01
-0.06
-0.17
-0.28
-0.33
-0.30
-0.22
-0.12
-0.06
-0.01
0.05
0.17
0.33
0.50
0.64
0.69
0.69
0.66
0.66
0.67
0.67
0.59
0.41
0.16
-0.15
-0.45
-0.72
-0.91
-0.98
-0.89
-0.67
-0.39
-0.14
-0.01
0.03
0.04
0.13
0.30
0.46
0.48
0.26
-0.11
-0.45
-0.57
-0.38
0.05
0.52
0.83
0.92
0.84
0.74
0.71
0.74
0.72
0.57
0.27
-0.09
-0.37
-0.45
-0.34
-0.10
0.11
0.19
0.10
-0.11
-0.35
-0.51
-0.52
-0.41
-0.22
-0.06
0.01
-0.03
-0.15
-0.26
-0.27
-0.18
-0.04
0.08
0.11
0.02
-0.16
-0.38
-0.57
-0.72
-0.82
-0.85
-0.81
-0.68
-0.47
-0.17
0.17
0.52
0.81
1.02
1.12
1.11
0.99
0.82
0.62
0.44
0.28
0.12
-0.03
-0.14
-0.15
-0.04
0.20
0.47
0.66
0.68
0.54
0.29
0.05
-0.11
-0.18
-0.20
-0.25
-0.36
-0.53
-0.70
-0.81
-0.86
-0.83
-0.75
-0.64
-0.49
-0.31
-0.12
0.01
0.06
0.01
-0.06
-0.08
0.03
0.25
0.49
0.66
0.72
0.68
0.66
0.71
0.88
1.09
1.24
1.24
1.10
0.88
0.65
0.47
0.35
0.22
0.04
-0.25
-0.65
-1.07
-1.42
-1.57
-1.45
-1.10
-0.63
-0.23
-0.04
-0.10
-0.31
-0.51
-0.53
-0.32
0.03
0.37
0.57
0.57
0.44
0.25
0.09
-0.07
-0.24
-0.43
-0.59
-0.63
-0.48
-0.17
0.21
0.53
0.69
0.68
0.58
0.45
0.35
0.28
0.25
0.23
0.28
0.44
0.68
0.93
1.07
1.02
0.79
0.49
0.28
0.27
0.47
0.77
1.01
1.09
0.96
0.64
0.21
-0.26
-0.70
-1.03
-1.17
-1.06
-0.69
-0.17
0.30
0.54
0.44
0.06
-0.45
-0.89
-1.14
-1.19
-1.13
-1.07
-1.06
-1.09
-1.09
-1.01
-0.82
-0.55
-0.27
-0.03
0.11
0.11
-0.06
-0.35
-0.67
-0.89
-0.92
-0.75
-0.47
-0.20
-0.06
-0.07
-0.16
-0.24
-0.25
-0.21
-0.20
-0.30
-0.51
-0.74
-0.85
-0.73
-0.41
-0.02
0.29
0.38
0.26
0.03
-0.16
-0.22
-0.11
0.12
0.35
0.52
0.57
0.52
0.44
0.36
0.31
0.27
0.19
0.04
-0.16
-0.38
-0.51
-0.48
-0.28
0.04
0.37
0.60
0.67
0.55
0.30
-0.01
-0.28
-0.44
-0.45
-0.29
-0.01
0.30
0.59
0.79
0.88
0.86
0.77
0.64
0.55
0.51
0.55
0.64
0.72
0.77
0.75
0.67
0.57
0.47
0.40
0.36
0.34
0.33
0.30
0.23
0.09
-0.11
-0.33
-0.51
-0.58
-0.53
-0.36
-0.17
-0.04
-0.04
-0.17
-0.38
-0.60
-0.78
-0.85
-0.83
-0.71
-0.55
-0.38
-0.25
-0.19
-0.17
-0.17
-0.17
-0.16
-0.15
-0.16
-0.21
-0.30
-0.37
-0.38
-0.29
-0.10
0.15
0.43
0.67
0.84
0.89
0.79
0.54
0.17
-0.22
-0.52
-0.66
-0.58
-0.33
0.00
0.28
0.41
0.36
0.16
-0.13
-0.42
-0.63
-0.67
-0.51
-0.15
0.32
0.76
1.01
0.98
0.67
0.20
-0.24
-0.50
-0.47
-0.17
0.28
0.74
1.04
1.03
0.70
0.10
-0.57
-1.07
-1.22
-0.99
-0.50
-0.01
0.27
0.25
0.01
-0.28
-0.43
-0.36
-0.10
0.24
0.51
0.66
0.64
0.52
0.35
0.19
0.08
0.01
-0.06
-0.15
-0.27
-0.38
-0.42
-0.31
-0.05
0.31
0.65
0.86
0.87
0.72
0.49
0.27
0.11
-0.03
-0.22
-0.49
-0.82
-1.11
-1.21
-1.06
-0.68
-0.21
0.18
0.39
0.40
0.33
0.27
0.28
0.29
0.20
-0.01
-0.29
-0.50
-0.52
-0.35
-0.10
0.08
0.12
0.01
-0.13
-0.22
-0.27
-0.35
-0.54
-0.84
-1.17
-1.36
-1.27
-0.87
-0.26
0.37
0.84
1.08
1.09
1.01
0.95
0.98
1.07
1.14
1.08
0.85
0.48
0.10
-0.16
-0.23
-0.11
0.09
0.24
0.26
0.15
-0.04
-0.21
-0.28
-0.23
-0.09
0.08
0.24
0.34
0.38
0.32
0.17
-0.09
-0.42
-0.78
-1.06
-1.20
-1.15
-0.91
-0.56
-0.18
0.12
0.30
0.36
0.34
0.32
0.33
0.37
0.41
0.38
0.26
0.07
-0.12
-0.21
-0.15
0.06
0.31
0.49
0.50
0.32
0.00
-0.36
-0.70
-0.94
-1.10
-1.15
-1.11
-0.98
-0.78
-0.57
-0.39
-0.29
-0.24
-0.22
-0.20
-0.16
-0.16
-0.22
-0.33
-0.44
-0.47
-0.39
-0.26
-0.14
-0.12
-0.18
-0.24
-0.19
0.02
0.34
0.66
0.87
0.92
0.83
0.68
0.55
0.47
0.42
0.37
0.29
0.20
0.12
0.09
0.13
0.23
0.36
0.45
0.47
0.40
0.27
0.12
0.03
0.04
0.17
0.34
0.46
0.43
0.26
-0.02
-0.27
-0.40
-0.34
-0.14
0.10
0.25
0.25
0.08
-0.16
-0.33
-0.35
-0.18
0.10
0.39
0.58
0.63
0.55
0.41
0.24
0.07
-0.10
-0.26
-0.38
-0.43
-0.36
-0.19
0.05
0.26
0.39
0.39
0.26
0.07
-0.12
-0.20
-0.11
0.15
0.52
0.87
1.06
1.00
0.70
0.25
-0.22
-0.54
-0.64
-0.48
-0.14
0.27
0.60
0.73
0.64
0.34
-0.06
-0.45
-0.74
-0.92
-0.99
-0.99
-0.92
-0.76
-0.51
-0.20
0.14
0.41
0.58
0.60
0.50
0.35
0.20
0.13
0.15
0.24
0.35
0.39
0.32
0.13
-0.12
-0.35
-0.48
-0.49
-0.42
-0.36
-0.37
-0.45
-0.55
-0.57
-0.44
-0.19
0.09
0.27
0.28
0.15
-0.02
-0.09
0.02
0.28
0.61
0.88
1.00
0.98
0.85
0.66
0.45
0.23
0.03
-0.09
-0.10
0.05
0.32
0.64
0.90
0.99
0.87
0.57
0.16
-0.26
-0.59
-0.79
-0.85
-0.85
-0.86
-0.97
-1.17
-1.41
-1.56
-1.51
-1.22
-0.76
-0.30
0.02
0.10
-0.02
-0.20
-0.32
-0.31
-0.22
-0.13
-0.14
-0.26
-0.42
-0.51
-0.43
-0.18
0.18
0.51
0.73
0.76
0.65
0.47
0.29
0.17
0.11
0.12
0.19
0.31
0.47
0.62
0.68
0.57
0.28
-0.15
-0.59
-0.91
-1.02
-0.92
-0.69
-0.42
-0.17
0.04
0.22
0.38
0.52
0.62
0.65
0.66
0.66
0.68
0.71
0.72
0.65
0.51
0.34
0.23
0.22
0.33
0.50
0.65
0.70
0.60
0.35
0.00
-0.36
-0.68
-0.92
-1.06
-1.10
-1.05
-0.95
-0.82
-0.68
-0.55
-0.45
-0.39
-0.38
-0.39
-0.35
-0.21
0.06
0.45
0.88
1.21
1.32
1.14
0.71
0.18
-0.25
-0.42
-0.30
0.00
0.30
0.44
0.39
0.20
0.01
-0.09
-0.08
-0.01
0.05
0.03
-0.06
-0.16
-0.22
-0.19
-0.08
0.09
0.27
0.39
0.41
0.32
0.16
-0.02
-0.18
-0.29
-0.37
-0.42
-0.44
-0.41
-0.30
-0.14
0.07
0.24
0.31
0.27
0.12
-0.07
-0.21
-0.22
-0.07
0.17
0.42
0.56
0.51
0.30
0.01
-0.24
-0.36
-0.33
-0.19
-0.02
0.12
0.18
0.18
0.14
0.09
0.05
0.02
-0.03
-0.11
-0.22
-0.35
-0.44
-0.45
-0.39
-0.27
-0.16
-0.11
-0.12
-0.17
-0.17
-0.11
-0.01
0.06
0.02
-0.16
-0.43
-0.68
-0.80
-0.71
-0.44
-0.07
0.29
0.55
0.65
0.59
0.42
0.20
0.01
-0.10
-0.09
0.01
0.16
0.29
0.32
0.24
0.04
-0.20
-0.38
-0.41
-0.27
0.01
0.31
0.51
0.55
0.42
0.18
-0.07
-0.25
-0.34
-0.30
-0.17
0.00
0.17
0.27
0.29
0.25
0.20
0.19
0.23
0.26
0.23
0.09
-0.11
-0.30
-0.40
-0.38
-0.26
-0.12
-0.02
0.02
-0.01
-0.09
-0.23
-0.43
-0.65
-0.82
-0.84
-0.65
-0.28
0.17
0.54
0.73
0.69
0.46
0.14
-0.18
-0.43
-0.58
-0.63
-0.61
-0.54
-0.46
-0.37
-0.29
-0.21
-0.09
0.09
0.32
0.54
0.65
0.57
0.33
0.00
-0.26
-0.35
-0.25
-0.04
0.12
0.14
0.01
-0.14
-0.18
-0.03
0.25
0.54
0.69
0.65
0.45
0.24
0.13
0.15
0.25
0.35
0.39
0.37
0.33
0.28
0.22
0.13
0.03
-0.04
-0.04
0.05
0.18
0.28
0.34
0.36
0.41
0.51
0.64
0.70
