1650736551.00
64.000000
-0.00
-0.00
-0.00
-0.00
-0.00
-0.00
-0.00
-0.00
-0.00
-0.00
0.00
0.01
0.01
-0.00
-0.03
-0.05
-0.05
0.00
0.13
0.36
0.66
1.01
1.37
1.72
2.06
2.40
2.79
3.24
3.80
4.42
5.06
5.66
6.20
6.68
7.15
7.68
8.31
9.14
10.09
11.04
11.88
12.56
13.14
13.76
14.65
15.96
17.91
20.32
22.90
25.38
27.58
29.57
31.68
34.32
37.81
42.54
48.15
54.10
59.83
64.97
69.58
74.14
79.34
85.71
93.76
103.00
112.62
121.73
129.77
136.75
143.30
150.75
157.77
166.64
177.95
191.79
206.97
220.57
228.25
225.36
208.53
176.87
132.76
80.05
23.07
-34.94
-92.44
-149.16
-205.23
-260.37
-313.74
-363.87
-409.83
-450.91
-486.50
-515.74
-537.23
-549.22
-549.96
-538.37
-514.21
-478.67
-433.88
-382.45
-327.02
-269.84
-212.63
-156.66
-102.95
-52.37
-5.90
35.58
71.43
101.35
125.50
144.38
158.69
169.15
176.37
180.75
182.57
182.07
179.51
175.23
169.65
163.18
156.15
148.81
141.30
133.69
126.02
118.33
110.69
103.16
95.80
88.68
81.83
75.25
68.95
62.95
57.25
51.86
46.78
42.03
37.59
33.45
29.61
26.07
22.81
19.83
17.11
14.67
12.48
10.54
8.83
7.35
6.07
4.97
4.05
3.27
2.62
2.09
1.65
1.30
1.01
0.79
0.61
0.47
0.37
0.29
0.23
0.19
0.16
0.15
0.14
0.15
0.16
0.18
0.20
0.23
0.27
0.31
0.35
0.39
0.43
0.48
0.52
0.57
0.63
0.69
0.74
0.81
0.88
0.96
1.05
1.14
1.25
1.36
1.50
1.64
1.81
1.99
2.20
2.42
2.67
2.94
3.25
3.58
3.94
4.33
4.77
5.25
5.78
6.34
6.91
7.47
8.03
8.60
9.20
9.88
10.65
11.51
12.44
13.43
14.43
15.43
16.46
17.51
18.63
19.78
20.90
21.84
22.45
22.55
22.02
20.83
19.01
16.65
13.84
10.63
6.96
2.82
-1.78
-6.71
-11.69
-16.33
-20.25
-23.20
-25.19
-26.51
-27.60
-28.85
-30.46
-32.29
-33.96
-35.01
-35.15
-34.50
-33.57
-33.06
-33.59
-35.32
-37.92
-40.66
-42.78
-43.83
-43.87
-43.47
-43.36
-44.21
-46.48
-50.50
-56.27
-63.19
-69.71
-73.39
-71.57
-62.52
-46.40
-25.71
-4.48
13.32
25.27
31.22
32.67
31.59
29.22
25.83
21.14
15.06
8.35
2.46
-1.23
-2.10
-0.60
2.02
4.57
6.22
6.84
6.91
7.11
7.97
9.71
12.31
14.21
14.80
14.06
12.40
10.41
8.64
7.37
6.65
6.28
5.94
5.49
4.70
3.32
1.25
-1.46
-4.54
-7.65
-10.47
-12.87
-14.76
-16.27
-17.65
-19.13
-20.86
-22.92
-25.36
-28.21
-31.42
-34.71
-37.61
-39.46
-39.55
-37.26
-32.36
-25.16
-16.51
-7.60
0.50
7.11
12.07
15.66
18.38
20.56
22.38
23.79
24.71
25.19
25.33
25.30
25.17
24.92
24.39
23.37
21.66
19.10
15.73
11.79
7.73
4.11
1.40
-0.29
-1.18
-1.77
-2.67
-4.32
-7.03
-10.96
-16.16
-22.53
-29.66
-36.70
-42.52
-45.97
-46.41
-43.93
-39.44
-34.29
-29.77
-26.78
-25.55
-25.76
-26.78
-27.89
-28.46
-28.00
-26.21
-22.98
-18.33
-12.39
-5.34
2.68
11.58
21.30
31.63
42.18
52.31
61.22
68.20
72.75
74.79
74.56
72.54
69.26
65.16
60.53
55.54
50.25
44.66
38.76
32.64
26.46
20.57
15.47
11.73
9.93
10.42
13.18
17.78
23.38
28.98
33.64
36.74
38.07
37.79
36.27
33.90
30.98
27.71
24.20
20.59
17.05
13.73
10.80
8.34
6.40
4.90
3.65
2.34
0.64
-1.69
-4.67
-8.05
-11.32
-13.94
-15.54
-16.09
-15.93
-15.63
-15.82
-16.87
-18.77
-21.04
-22.81
-23.15
-21.38
-17.26
-11.15
-3.86
3.59
10.23
15.26
18.24
19.07
18.03
15.63
12.54
9.38
6.55
4.22
2.31
0.69
-0.76
-2.09
-3.34
-4.59
-5.93
-7.38
-8.75
-9.68
-9.79
-8.86
-7.07
-4.88
-2.98
-1.98
-2.25
-3.78
-6.26
-9.09
-11.55
-12.87
-12.38
-9.65
-4.63
2.32
10.43
18.74
26.31
32.38
36.51
38.56
38.66
37.06
34.06
29.94
25.00
19.62
14.27
9.47
5.68
3.11
1.64
0.93
0.50
0.02
-0.65
-1.49
-2.47
-3.68
-5.28
-7.33
-9.69
-11.94
-13.58
-14.25
-13.96
-13.10
-12.20
-11.67
-11.56
-11.61
-11.36
-10.44
-8.71
-6.29
-3.46
-0.46
2.54
5.39
7.92
9.88
11.05
11.37
11.08
10.54
10.15
10.13
10.41
10.76
10.95
10.87
10.60
10.31
10.15
10.14
10.21
10.20
10.03
9.70
9.27
8.84
8.54
8.41
8.45
8.56
8.47
7.90
6.53
4.24
1.25
-1.85
-4.19
-4.81
-2.96
1.66
8.85
17.98
28.11
38.09
46.62
52.25
53.63
49.81
40.78
27.81
13.30
0.29
-8.45
-11.18
-7.69
0.72
11.59
22.06
29.55
32.33
29.96
23.05
13.09
1.83
-9.24
-19.17
-27.57
-34.52
-40.33
-45.45
-50.34
-55.32
-60.43
-65.30
-69.16
-71.14
-70.56
-67.24
-61.50
-54.03
-45.61
-36.94
-28.53
-20.70
-13.67
-7.65
-2.79
0.82
3.24
4.66
5.39
5.82
6.31
7.10
8.24
9.60
10.95
12.06
12.72
12.75
11.91
10.04
7.11
3.37
-0.60
-4.09
-6.45
-7.36
-6.91
-5.59
-4.08
-3.05
-2.95
-3.81
-5.26
-6.67
-7.39
-7.02
-5.55
-3.34
-0.83
1.65
4.02
6.27
8.37
10.01
10.78
10.37
8.86
6.71
4.55
2.82
1.55
0.38
-1.07
-2.91
-4.86
-6.31
-6.75
-5.94
-3.99
-1.22
2.03
5.50
8.92
11.92
13.99
14.58
13.38
10.60
6.96
3.57
1.47
1.10
2.17
3.65
4.39
3.63
1.51
-1.05
-2.82
-2.87
-1.03
2.13
5.76
9.23
12.39
15.44
18.51
21.42
23.65
24.69
24.43
23.27
21.95
21.08
20.71
20.23
18.56
14.74
8.50
0.55
-7.54
-13.88
-17.00
-16.47
-13.03
-8.15
-3.49
-0.27
0.95
0.14
-2.45
-6.52
-11.64
-17.11
-21.88
-24.87
-25.26
-22.94
-18.59
-13.35
-8.39
-4.49
-1.89
-0.30
0.77
1.83
3.14
4.46
4.84
2.70
-3.87
-16.26
-34.58
-57.17
-80.92
-102.28
-118.67
-129.42
-135.91
-140.62
-145.76
-152.01
-158.13
-161.66
-160.14
-152.36
-138.86
-121.63
-103.09
-85.10
-68.42
-52.76
-37.24
-21.01
-3.65
14.72
33.56
51.99
68.98
83.46
94.47
101.33
103.88
102.55
98.47
93.28
88.62
85.59
84.24
83.60
82.33
79.79
76.88
75.85
78.98
86.75
96.95
105.35
107.88
103.29
94.10
85.47
82.27
86.37
95.59
105.07
109.92
107.65
99.01
86.98
74.83
64.48
56.06
48.46
40.82
32.89
25.23
19.10
15.79
16.01
19.07
22.72
23.95
20.53
12.19
0.82
-10.35
-18.55
-22.70
-23.72
-23.74
-24.53
-25.81
-26.36
-25.22
-22.70
-20.12
-18.81
-19.09
-20.23
-21.05
-19.23
-14.44
-8.97
-6.44
-9.50
-18.18
-30.01
-41.77
-50.61
-51.82
-44.03
-30.73
-19.03
-15.63
-23.42
-40.40
-61.32
-78.94
-81.59
-62.48
-22.86
29.37
85.56
140.95
195.40
250.77
310.40
383.72
475.73
583.29
695.42
799.00
883.50
942.90
974.82
933.96
800.99
595.19
367.41
165.55
11.53
-95.58
-161.90
-205.22
-236.06
-253.19
-255.95
-249.19
-243.42
-245.90
-259.99
-284.75
-318.20
-357.10
-393.90
-424.08
-448.02
-469.89
-493.06
-517.50
-539.99
-557.08
-565.37
-560.07
-539.46
-505.76
-464.25
-420.14
-376.70
-334.99
-295.25
-256.92
-218.33
-179.07
-140.57
-105.57
-76.38
-53.83
-36.93
-23.93
-12.61
-0.85
12.36
26.78
41.32
54.69
65.70
73.45
77.14
76.33
71.07
62.22
51.48
41.18
33.68
30.53
31.99
36.92
43.14
48.36
51.02
50.81
48.66
46.05
44.12
43.16
42.45
40.82
37.38
32.00
25.43
18.97
13.88
11.03
10.67
12.51
15.97
20.30
24.86
29.13
32.80
35.79
38.19
40.14
41.53
41.93
40.62
36.89
30.49
21.84
12.21
3.31
-3.35
-7.07
-8.35
-8.41
-8.58
-9.74
-12.30
-16.31
-21.42
-26.80
-31.04
-32.44
-29.69
-22.87
-14.05
-7.16
-6.11
-12.76
-25.83
-41.61
-55.39
-62.67
-59.55
-42.65
-10.53
35.74
91.47
148.20
195.23
222.69
225.02
202.80
162.34
112.35
62.88
24.18
5.07
10.65
39.41
82.47
125.61
154.09
156.34
128.99
77.76
13.74
-51.44
-110.01
-158.84
-197.60
-216.45
-207.30
-170.14
-115.06
-56.52
-5.31
33.38
59.10
74.52
83.81
89.37
91.98
91.60
86.79
76.97
62.00
42.60
20.55
-1.89
-24.12
-46.95
-66.03
-81.45
-94.09
-104.69
-113.11
-118.26
-118.89
-115.13
-108.41
-100.70
-94.52
-91.08
-90.84
-93.78
-99.24
-105.51
-109.75
-107.98
-96.04
-72.35
-38.39
0.73
38.04
67.47
86.20
94.97
96.82
95.14
91.55
86.48
79.89
72.43
65.70
61.86
62.44
67.42
74.84
80.86
80.95
71.64
52.01
24.54
-5.35
-31.42
-49.01
-56.88
-57.55
-55.59
-55.09
-57.71
-62.23
-65.73
-65.79
-61.87
-55.59
-49.61
-46.15
-45.65
-46.71
-47.34
-45.18
-39.74
-32.25
-24.62
-17.97
-11.72
-4.11
6.38
19.58
33.28
44.23
50.11
51.14
49.50
47.30
44.62
39.18
28.14
10.81
-10.03
-28.79
-39.97
-41.08
-33.87
-23.09
-13.64
-8.09
-5.94
-4.90
-2.72
1.43
6.86
12.23
16.69
20.40
24.33
29.70
37.39
47.60
59.66
72.24
83.66
92.73
98.75
101.90
102.97
102.87
102.61
103.44
106.99
114.84
127.09
141.30
152.27
153.68
140.72
112.51
72.79
28.08
-15.02
-52.11
-81.67
-104.46
-121.10
-132.71
-140.99
-148.27
-156.83
-167.63
-179.11
-187.05
-185.77
-170.05
-137.23
-87.59
-24.28
47.38
120.58
188.02
243.08
281.15
300.57
302.34
289.00
263.52
228.68
187.41
143.50
101.40
65.38
37.78
18.01
3.48
-8.17
-16.94
-20.06
-14.09
1.76
23.20
41.26
45.89
30.91
-2.60
-46.48
-89.10
-120.41
-135.50
-135.15
-123.78
-106.49
-86.93
-67.14
-48.58
-33.21
-23.69
-22.34
-29.81
-44.05
-60.65
-74.35
-81.08
-79.59
-71.87
-62.40
-56.19
-56.89
-65.42
-79.76
-95.80
-108.91
-115.44
-113.66
-103.99
-88.67
-71.01
-54.47
-41.89
-34.79
-33.24
-35.98
-40.89
-45.49
-47.54
-45.59
-39.37
-30.05
-20.11
-12.73
-10.83
-15.91
-27.44
-42.85
-58.49
-70.92
-78.14
-79.92
-77.35
-71.90
-64.55
-55.54
-44.69
-32.03
-18.37
-5.36
5.04
11.17
12.38
9.24
3.32
-3.34
-8.92
-12.24
-12.86
-10.77
-5.99
1.72
12.67
26.75
42.87
58.70
71.20
77.68
77.17
71.11
63.02
57.14
56.65
62.40
72.55
83.47
91.21
92.97
87.90
77.06
62.59
46.72
31.06
16.39
2.89
-9.21
-19.43
-26.84
-30.55
-30.27
-26.79
-21.95
-18.09
-17.10
-19.58
-24.52
-29.69
-32.49
-30.94
-24.49
-14.14
-2.01
9.42
18.13
23.05
24.09
21.89
17.37
11.52
5.27
-0.36
-4.34
-5.71
-3.94
0.69
6.96
12.87
16.27
15.63
10.63
2.44
-6.77
-14.66
-19.62
-21.29
-20.58
-19.02
-17.93
-17.78
-18.24
-18.61
-18.58
-18.53
-19.48
-22.36
-27.50
-34.28
-41.37
-47.31
-51.02
-52.20
-51.19
-48.68
-45.41
-41.94
-38.61
-35.64
-33.19
-31.45
-30.59
-30.80
-32.12
-34.30
-36.68
-38.23
-37.72
-34.20
-27.41
-17.99
-7.46
2.21
9.17
12.25
11.36
7.42
1.99
-3.30
-7.35
-9.81
-10.89
-10.65
-8.39
-2.42
9.34
28.27
54.13
84.99
117.95
150.15
179.45
204.22
222.99
234.17
236.69
230.85
218.83
204.09
189.92
177.84
167.09
155.47
141.16
124.06
105.88
88.83
73.75
59.09
41.22
16.15
-18.45
-61.87
-110.17
-157.24
-196.63
-223.32
-235.20
-233.46
-222.33
-208.02
-197.09
-194.75
-203.31
-221.31
-243.78
-263.54
-273.22
-267.33
-243.54
-203.00
-149.68
-89.22
-27.88
28.42
74.94
108.67
128.87
137.08
136.60
131.54
125.78
122.31
123.07
129.11
140.61
156.63
174.91
192.13
204.69
209.79
206.17
194.16
175.23
151.38
125.03
99.36
78.53
67.28
69.46
86.11
114.13
146.46
174.03
188.66
185.63
164.62
128.93
83.40
32.36
-21.29
-75.81
-129.52
-179.87
-223.50
-257.19
-279.19
-289.88
-291.49
-286.90
-278.30
-266.47
-251.05
-231.62
-208.70
-184.25
-161.16
-142.24
-129.27
-122.67
-121.73
-125.39
-132.78
-143.20
-155.69
-168.27
-177.76
-180.25
-172.08
-150.97
-116.49
-70.01
-14.44
45.90
105.28
156.88
193.74
210.54
205.40
180.97
143.82
102.56
65.28
37.56
21.91
18.45
26.16
43.87
70.67
105.43
146.18
189.58
230.94
264.93
286.88
294.38
288.56
274.07
257.53
244.98
239.17
238.44
237.51
230.18
212.12
182.77
145.00
103.21
61.11
20.13
-20.61
-63.13
-109.00
-158.09
-208.32
-256.30
-298.48
-332.19
-356.17
-370.18
-374.34
-368.34
-351.35
-322.62
-282.59
-233.89
-181.41
-131.41
-89.95
-61.22
-46.78
-45.50
-54.35
-69.27
-85.75
-99.08
-104.65
-98.40
-77.63
-42.03
5.62
59.45
111.57
153.77
179.60
185.95
173.60
146.58
110.74
72.08
35.34
3.51
-21.91
-40.30
-51.22
-53.92
-47.46
-30.98
-4.10
32.64
77.46
127.07
176.68
220.47
252.78
269.84
271.33
260.94
245.45
232.26
226.42
228.53
234.64
238.13
232.76
215.23
186.13
148.86
107.57
65.02
21.84
-23.12
-71.42
-123.60
-178.18
-231.59
-279.07
-315.89
-338.65
-346.15
-339.30
-320.41
-292.18
-256.94
-216.56
-172.93
-128.59
-87.14
-52.96
-30.38
-22.55
-30.37
-51.69
-81.31
-111.66
-134.34
-142.21
-131.44
-102.52
-60.10
-11.41
35.73
74.84
101.76
114.89
114.75
103.56
84.69
62.12
39.82
21.21
8.63
3.16
4.74
12.50
25.14
41.24
59.54
79.09
99.38
120.17
141.14
161.34
178.90
191.27
196.20
193.08
183.97
173.32
166.43
166.97
174.92
186.06
193.36
189.75
170.81
136.15
88.91
34.15
-23.08
-78.65
-129.42
-172.75
-206.36
-228.68
-239.69
-241.20
-236.34
-228.38
-219.41
-209.80
-198.49
-184.03
-165.73
-144.35
-122.03
-101.61
-85.73
-75.96
-72.49
-74.34
-79.93
-87.77
-96.75
-105.97
-114.15
-119.14
-117.95
-107.47
-85.42
-51.23
-6.48
45.21
98.74
148.24
188.05
213.81
223.44
217.66
199.84
174.89
147.70
121.89
99.39
81.03
67.62
60.55
61.50
71.29
88.88
111.05
133.29
151.34
162.33
165.22
160.11
147.29
126.75
98.70
64.50
27.35
-8.01
-36.77
-55.77
-64.59
-65.63
-62.96
-60.92
-62.92
-70.82
-84.89
-103.92
-125.50
-146.45
-163.45
-173.75
-175.81
-169.55
-156.11
-137.23
-114.76
-90.42
-65.85
-42.76
-22.94
-7.99
1.18
4.72
3.85
0.50
-3.40
-6.61
-9.03
-11.62
-15.96
-23.53
-35.06
-50.08
-66.87
-82.69
-94.20
-98.07
-91.71
-73.92
-45.36
-8.66
32.09
72.21
107.44
134.78
152.86
161.81
162.92
158.19
149.88
140.01
129.88
119.71
108.85
96.33
81.83
66.45
52.78
44.24
43.94
53.38
71.80
96.18
121.77
143.12
155.23
154.89
141.62
118.23
90.18
63.96
44.70
34.31
30.76
29.19
24.07
11.63
-8.86
-35.27
-63.97
-91.50
-115.66
-135.62
-151.29
-162.54
-168.97
-170.09
-165.90
-157.30
-146.06
-134.36
-124.03
-115.98
-109.91
-104.61
-98.54
-90.52
-80.22
-68.32
-56.28
-45.86
-38.58
-35.41
-36.56
-41.52
-49.05
-57.23
-63.69
-65.83
-61.44
-49.27
-29.61
-4.46
22.82
48.22
67.99
79.67
82.66
78.35
69.76
60.59
54.26
52.96
57.11
65.54
75.95
85.64
92.20
93.97
90.19
81.22
68.55
54.75
43.10
36.82
37.87
45.84
57.68
68.37
72.71
67.32
52.00
29.79
5.71
-15.22
-29.74
-37.31
-39.93
-41.03
-44.23
-52.30
-66.61
-87.13
-112.73
-141.62
-171.88
-201.55
-228.48
-250.00
-262.75
-263.25
-249.13
-220.44
-180.32
-134.36
-88.82
-48.58
-15.73
10.35
31.81
50.65
67.77
83.07
96.42
108.68
121.90
138.57
160.19
186.15
213.39
237.28
253.30
258.89
254.35
242.71
228.38
215.40
206.01
200.12
195.65
189.70
179.67
164.29
144.04
120.86
97.41
75.93
57.11
39.77
21.52
0.19
-24.59
-50.58
-73.39
-88.16
-91.67
-83.60
-66.71
-45.64
-25.36
-9.80
-1.36
-1.03
-8.90
-24.25
-45.41
-69.48
-92.45
-110.00
-118.81
-117.87
-109.07
-96.57
-85.09
-77.95
-75.98
-77.70
-80.63
-82.81
-83.48
-82.69
-80.24
-75.08
-65.66
-51.24
-33.03
-14.21
1.33
11.00
14.82
15.24
15.60
18.23
23.41
29.60
34.74
37.41
37.49
35.78
33.27
30.54
27.59
24.06
19.62
14.26
8.43
3.11
-0.42
-1.13
1.26
5.90
11.12
15.23
17.32
17.62
17.12
16.68
16.43
15.62
13.30
9.02
3.19
-3.31
-9.86
-16.43
-23.28
-30.18
-35.88
-38.32
-35.70
-27.64
-15.86
-3.74
4.90
7.31
3.09
-5.77
-15.40
-20.90
-17.59
-2.52
24.05
57.94
91.79
117.85
130.69
129.75
119.83
109.20
105.87
113.88
131.44
151.67
166.09
167.24
151.32
119.50
77.77
35.42
2.46
-13.06
-7.60
17.51
55.69
97.57
134.21
160.05
173.94
178.10
176.46
167.27
150.52
127.52
101.56
77.32
59.35
49.92
47.71
48.86
48.86
45.40
38.47
30.92
25.06
22.69
24.04
27.10
28.74
25.95
17.70
4.66
-11.18
-27.86
-44.35
-58.60
-71.09
-83.46
-97.42
-113.44
-131.09
-149.38
-167.51
-184.64
-199.59
-210.90
-216.46
-214.45
-204.35
-187.50
-166.08
-141.45
-112.83
-77.98
-35.44
13.84
65.51
112.91
149.38
170.82
176.71
169.60
153.08
129.53
99.80
63.69
21.34
-25.58
-73.41
-117.21
-151.94
-174.62
-186.06
-189.51
-189.08
-187.72
-186.36
-184.42
-180.83
-174.40
-165.18
-155.44
-147.59
-143.74
-145.40
-153.04
-165.77
-180.72
-192.20
-195.13
-188.23
-172.28
-149.77
-123.68
-96.58
-70.86
-49.43
-34.63
-31.32
-47.08
-86.88
-151.59
-237.93
-340.15
-452.88
-572.49
-694.56
-794.40
-848.70
-839.19
-761.95
-630.34
-469.05
-304.56
-170.02
-67.64
8.33
62.73
99.92
122.84
133.65
135.82
132.38
126.94
125.38
129.93
138.30
146.76
151.34
149.30
140.37
126.42
110.97
99.59
95.07
97.00
103.71
112.74
121.68
128.94
133.75
136.39
138.94
142.59
147.66
154.24
161.92
169.71
176.36
180.61
181.85
180.94
179.11
177.88
179.05
184.28
194.81
211.11
232.10
254.60
273.36
281.90
275.23
252.51
218.37
181.90
153.59
141.35
147.69
169.15
198.16
226.28
247.30
258.99
262.97
263.27
264.27
269.13
278.96
292.89
308.48
322.57
331.59
331.87
319.95
292.99
249.82
191.79
123.44
51.90
-14.55
-68.53
-105.34
-123.80
-126.03
-116.38
-100.06
-81.88
-65.64
-53.92
-48.29
-49.51
-57.27
-69.87
-83.94
-94.94
-98.33
-91.26
-73.82
-49.33
-23.31
-1.26
13.46
20.82
23.82
26.79
33.41
45.26
61.70
80.72
100.12
118.33
134.32
147.04
154.85
155.79
148.49
133.35
113.17
92.65
76.94
69.96
73.27
85.88
104.98
126.90
147.93
164.68
174.30
174.68
164.81
145.19
117.89
86.11
53.46
23.13
-2.74
-23.39
-39.52
-53.33
-68.11
-87.56
-114.48
-149.23
-188.41
-224.82
-249.11
-252.99
-232.84
-191.95
-140.00
-89.96
-53.45
-36.97
-40.72
-59.96
-88.33
-120.78
-154.87
-190.46
-228.55
-270.26
-316.34
-366.70
-419.64
-471.25
-515.35
-544.69
-553.19
-538.06
-500.89
-447.08
-384.10
-319.48
-259.55
-209.03
-171.12
-147.54
-138.29
-141.29
-152.56
-167.04
-179.78
-187.21
-187.82
-182.19
-172.62
-161.97
-152.55
-145.17
-138.87
-131.44
-120.51
-104.68
-84.08
-60.26
-35.41
-11.50
10.29
29.72
47.17
63.42
79.42
96.14
114.71
136.34
162.19
192.85
227.61
263.92
297.49
323.55
338.67
342.46
338.03
330.77
325.78
325.38
327.98
329.02
323.37
307.88
282.79
251.21
217.48
185.26
156.44
131.20
108.77
88.41
69.89
53.56
39.80
28.69
19.76
12.16
5.00
-2.27
-9.61
-16.61
-22.78
-27.90
-32.22
-36.33
-40.72
-45.41
-49.78
-52.71
-53.10
-50.42
-45.16
-38.74
-33.06
-29.73
-29.37
-31.39
-34.12
-35.57
-34.21
-29.56
-22.37
-14.29
-7.26
-2.78
-1.50
-3.07
-6.40
-10.04
-12.77
-13.93
-13.52
-12.06
-10.09
-7.88
-5.06
-0.82
5.75
15.19
27.31
41.01
54.33
64.69
69.41
66.48
55.39
37.71
17.00
-1.98
-14.61
-17.73
-10.29
6.75
31.11
60.05
90.80
120.49
145.99
164.04
171.91
168.32
154.26
132.90
108.73
86.16
68.34
56.55
50.53
49.07
50.45
52.56
52.77
48.29
36.99
18.48
-5.35
-30.87
-54.18
-72.74
-86.29
-96.36
-105.02
-113.34
-120.82
-125.83
-126.76
-123.21
-116.37
-108.61
-102.58
-100.10
-101.60
-105.90
-110.65
-113.14
-111.12
-103.48
-90.43
-73.21
-53.51
-33.02
-13.22
4.47
18.64
28.00
31.72
29.86
23.40
14.02
3.44
-7.05
-16.78
-25.43
-32.54
-37.18
-38.03
-33.85
-24.09
-9.28
8.87
27.94
45.31
58.88
67.43
70.76
69.49
64.74
57.77
49.80
41.83
34.66
28.86
24.72
22.05
20.29
18.61
16.26
12.92
8.89
4.96
1.99
0.52
0.38
0.89
1.12
0.36
-1.62
-4.56
-7.97
-11.44
-14.82
-18.22
-21.82
-25.66
-29.54
-33.04
-35.68
-37.01
-36.78
-34.91
-31.50
-26.78
-21.13
-15.01
-8.91
-3.28
1.56
5.39
8.18
9.92
10.63
10.32
9.03
6.83
3.94
0.67
-2.56
-5.33
-7.29
-8.20
-8.02
-6.89
-5.11
-3.07
-1.23
0.05
0.45
-0.20
-1.92
-4.57
-7.83
-11.28
-14.49
-17.19
-19.37
-21.24
-23.10
-25.10
-27.06
-28.58
-29.13
-28.34
-26.08
-22.49
-17.87
-12.49
-6.57
-0.38
5.74
11.31
15.92
19.41
21.97
24.11
26.36
29.04
32.02
34.79
36.69
37.18
36.06
33.52
30.04
26.19
22.45
19.14
16.28
13.65
10.75
7.02
1.95
-4.72
-12.87
-21.95
-31.10
-39.31
-45.62
-49.32
-50.10
-48.08
-43.84
-38.21
-32.11
-26.26
-21.11
-16.75
-13.14
-10.18
-7.78
-5.91
-4.40
-2.96
-1.19
1.28
4.64
8.85
13.55
18.24
22.42
25.64
27.60
28.18
27.44
25.61
23.04
20.18
17.46
15.27
13.84
13.19
13.14
13.36
13.54
13.47
13.16
12.74
12.35
12.00
11.56
10.86
9.81
8.51
7.19
6.12
5.42
5.12
5.22
5.68
6.49
7.53
8.50
8.96
8.41
6.59
3.53
-0.38
-4.58
-8.52
-11.82
-14.25
-15.66
-15.93
-15.01
-13.01
-10.32
-7.55
-5.32
-4.09
-3.87
-4.32
-4.87
-4.94
-4.19
-2.48
0.13
3.52
7.57
12.14
16.99
21.83
26.32
30.17
33.20
35.37
36.74
37.42
37.53
37.20
36.50
35.46
34.07
32.23
29.85
26.87
23.36
19.49
15.54
11.79
8.51
5.88
3.97
2.74
2.02
1.50
0.77
-0.55
-2.71
-5.66
-9.00
-12.10
-14.27
-15.03
-14.22
-11.99
-8.68
-4.66
-0.23
4.36
8.85
12.96
16.45
19.29
21.63
23.81
26.13
28.67
31.28
33.63
35.48
36.75
37.56
38.08
38.40
38.47
38.18
37.47
36.40
35.17
33.99
33.00
32.24
31.73
31.55
31.88
32.80
34.24
35.87
37.19
37.74
37.32
36.01
34.09
31.92
29.74
27.66
25.68
23.68
21.51
18.93
15.51
10.64
3.57
-6.40
-19.75
-36.43
-55.72
-76.30
-96.44
-114.51
-129.48
-141.14
-150.02
-157.05
-163.05
-168.51
-173.52
-178.01
-181.90
-185.16
-187.79
-189.63
-190.24
-188.78
-184.09
-174.80
-159.59
-137.49
-108.16
-72.11
-30.89
13.16
57.18
98.47
135.12
166.42
192.93
216.04
237.17
257.01
275.04
289.70
299.01
301.54
297.15
287.39
275.31
264.56
258.10
256.87
259.13
260.90
257.44
245.32
223.81
195.16
163.35
132.17
103.60
77.34
51.55
24.07
-6.54
-40.78
-78.22
-117.73
-157.27
-193.81
-223.72
-243.98
-253.73
-255.09
-252.80
-252.25
-257.11
-267.63
-280.76
-291.90
-297.25
-295.23
-286.55
-273.15
-256.80
-238.46
-218.53
-197.44
-175.99
-155.19
-136.00
-119.11
-105.16
-95.04
-89.63
-89.12
-92.38
-96.93
-99.93
-99.62
-96.30
-92.15
-89.83
-90.82
-94.62
-99.13
-101.91
-101.42
-97.40
-90.40
-81.12
-70.05
-57.81
-45.62
-35.35
-28.79
-26.48
-26.88
-26.58
-21.82
-10.46
6.70
26.02
42.71
53.16
56.75
56.10
56.11
61.87
77.03
102.86
138.18
179.81
223.22
262.97
293.43
309.66
308.52
289.53
255.22
210.62
162.11
115.88
76.65
46.68
25.65
11.21
0.12
-10.33
-21.15
-31.31
-38.39
-39.92
-34.71
-23.61
-9.15
5.53
17.92
26.77
32.02
34.13
33.38
29.63
22.53
12.04
-1.13
-15.55
-29.33
-40.63
-48.00
-50.72
-48.86
-43.31
-35.58
-27.31
-19.72
-13.05
-6.49
1.43
12.12
26.22
43.40
62.60
82.56
102.25
120.93
137.87
152.19
162.88
169.22
171.22
169.92
167.09
164.59
163.70
164.66
166.65
168.30
168.17
165.34
159.48
150.90
140.18
128.00
114.84
101.07
86.93
72.68
58.64
45.03
31.90
19.00
6.01
-7.20
-20.17
-31.86
-40.83
-45.87
-46.50
-43.25
-37.39
-30.52
-23.92
-18.32
-13.84
-10.27
-7.37
-5.05
-3.33
-2.23
-1.65
-1.37
-1.02
-0.28
1.16
3.51
6.82
10.78
14.63
16.99
16.02
9.80
-3.00
-22.63
-47.97
-76.79
-106.30
-133.84
-157.45
-175.85
-188.45
-195.07
-196.03
-192.15
-184.85
-176.04
-167.60
-160.94
-156.59
-154.16
-152.63
-150.80
-147.79
-143.18
-137.08
-129.92
-122.26
-114.67
-107.62
-101.41
-96.14
-91.63
-87.59
-83.66
-79.57
-75.32
-71.18
-67.55
-64.88
-63.33
-62.67
-62.28
-61.31
-58.98
-54.89
-49.11
-42.16
-34.78
-27.70
-21.48
-16.58
-13.38
-12.23
-13.37
-16.62
-21.24
-25.92
-29.15
-29.75
-27.43
-22.91
-17.68
-13.39
-11.18
-11.48
-13.98
-17.98
-22.61
-26.89
-29.54
-29.15
-24.48
-15.20
-2.31
11.83
24.36
32.94
36.66
36.20
33.28
29.72
26.71
24.56
23.05
21.92
21.16
21.05
21.89
23.67
26.08
28.62
30.83
32.46
33.44
33.82
33.58
32.62
30.85
28.30
25.30
22.40
20.34
19.65
20.51
22.55
24.99
26.91
27.59
26.80
24.82
22.25
19.71
17.51
15.68
13.98
12.23
10.41
8.66
6.99
5.19
2.74
-0.87
-5.72
-11.26
-16.29
-19.41
-19.61
-16.65
-11.11
-4.03
3.53
10.71
16.88
21.40
23.51
22.62
18.89
13.60
9.03
7.52
10.47
17.41
26.23
34.16
39.11
40.66
40.05
39.32
40.09
42.70
46.22
49.09
50.06
48.76
45.81
42.41
39.80
38.91
40.30
44.28
51.08
60.84
73.44
88.29
104.19
119.50
132.60
142.36
148.64
152.34
155.08
158.53
163.69
170.54
178.25
185.74
192.44
198.42
203.96
208.69
210.99
208.09
197.00
175.90
145.08
107.12
65.90
25.24
-12.19
-45.43
-74.95
-102.01
-128.27
-155.69
-186.68
-223.69
-268.05
-318.35
-369.41
-412.90
-439.60
-442.85
-421.33
-379.77
-327.22
-273.65
-226.67
-189.77
-162.63
-142.81
-127.61
-115.16
-104.49
-95.16
-86.87
-79.38
-72.64
-66.86
-62.34
-59.36
-57.83
-57.11
-55.90
-52.48
-45.14
-32.85
-15.86
4.19
24.64
42.74
56.62
65.80
71.07
73.87
75.46
76.46
76.89
76.54
75.41
73.95
72.83
72.63
73.51
75.16
76.94
78.29
78.98
79.34
80.04
81.84
85.12
89.62
94.47
98.41
100.31
99.58
96.40
91.65
86.54
82.11
78.96
77.02
75.80
74.64
73.02
70.77
67.99
64.79
61.08
56.48
50.47
42.68
33.20
22.68
12.17
2.89
-4.20
-8.53
-10.08
-9.31
-7.14
-4.73
-3.26
-3.63
-6.13
-10.28
-14.97
-18.77
-20.50
-19.60
-16.33
-11.62
-6.81
-3.13
-1.46
-2.13
-4.93
-9.32
-14.62
-20.21
-25.54
-30.13
-33.41
-34.89
-34.25
-31.56
-27.41
-22.74
-18.57
-15.56
-13.89
-13.26
-13.27
-13.70
-14.63
-16.21
-18.38
-20.62
-21.96
-21.32
-18.09
-12.43
-5.37
1.53
6.80
9.54
9.74
8.17
6.05
4.58
4.66
6.60
10.19
14.79
19.49
23.43
26.02
26.96
26.25
24.01
20.34
15.38
9.46
3.26
-2.18
-5.77
-6.86
-5.56
-2.84
-0.16
1.07
0.03
-3.22
-7.81
-12.38
-15.49
-16.01
-13.34
-7.56
0.62
9.95
18.92
26.14
30.66
32.34
31.88
30.60
29.92
30.82
33.45
37.20
41.00
43.89
45.47
45.91
45.79
45.65
45.75
45.99
46.09
45.76
44.77
42.92
39.95
35.57
29.55
21.88
12.78
2.70
-7.92
-18.89
-30.32
-42.58
-55.93
-70.19
-84.43
-96.96
-105.79
-109.21
-106.45
-98.05
-85.66
-71.53
-57.73
-45.71
-36.08
-28.77
-23.35
-19.26
-15.97
-13.06
-10.31
-7.68
-5.37
-3.63
-2.64
-2.34
-2.49
-2.80
-3.02
-3.07
-2.84
-2.18
-0.84
1.36
4.37
7.78
11.02
13.56
15.15
15.90
16.11
16.07
15.82
15.18
13.90
11.93
9.49
7.05
5.10
3.97
3.61
3.63
3.38
2.22
-0.28
-4.17
-8.97
-13.84
-17.68
-19.55
-18.98
-16.13
-11.77
-6.95
-2.67
0.48
2.46
3.59
4.32
4.97
5.68
6.46
7.26
8.08
8.91
9.70
10.33
10.65
10.54
9.96
8.87
7.26
5.11
2.46
-0.52
-3.53
-6.16
-8.09
-9.25
-9.82
-10.24
-10.88
-11.89
-13.07
-13.90
-13.78
-12.38
-9.92
-7.20
-5.45
-5.90
-9.47
-16.36
-25.91
-36.58
-46.11
-51.92
-51.55
-43.54
-28.09
-7.66
13.36
29.68
36.99
33.49
20.82
3.37
-13.49
-25.44
-30.51
-29.20
-23.42
-15.38
-6.93
0.31
4.55
3.97
-2.44
-13.68
-26.23
-34.96
-35.15
-24.86
-6.21
15.17
32.29
39.57
34.94
20.44
1.19
-16.51
-27.26
-27.95
-18.41
-1.10
19.63
38.58
50.93
53.41
45.24
28.63
8.32
-9.66
-19.90
-19.35
-8.41
9.28
28.24
43.04
50.14
48.86
41.21
30.89
21.81
16.81
16.96
21.59
28.99
37.19
44.68
50.79
55.48
59.04
61.68
63.35
63.80
62.77
60.17
56.17
51.08
45.26
38.99
32.51
26.07
20.05
14.96
11.31
9.33
8.83
9.18
9.41
8.54
5.93
1.42
-4.68
-11.77
-19.19
-26.45
-33.34
-39.93
-46.55
-53.60
-61.42
-70.09
-79.31
-88.41
-96.50
-102.85
-107.24
-110.14
-112.43
-115.03
-118.20
-121.26
-122.61
-120.34
-113.10
-100.75
-84.61
-67.11
-51.02
-38.71
-31.53
-29.59
-31.90
-36.57
-41.23
-43.40
-40.91
-32.34
-17.26
3.71
29.02
56.67
84.79
112.14
138.31
163.63
188.63
213.37
236.83
256.74
269.99
273.54
265.50
245.92
216.92
182.06
145.40
110.31
78.93
52.07
29.54
10.77
-4.78
-17.38
-26.87
-32.70
-34.02
-29.94
-20.06
-5.09
12.82
30.22
43.22
48.53
44.62
32.10
13.55
-7.46
-27.48
-44.03
-56.04
-63.62
-67.52
-68.54
-67.23
-63.85
-58.66
-52.11
-44.87
-37.64
-30.83
-24.38
-17.84
-10.76
-3.19
4.12
9.82
12.36
10.60
4.34
-5.53
-17.24
-28.72
-38.15
-44.30
-46.50
-44.35
-37.54
-25.90
-9.75
9.76
30.54
49.95
65.49
75.52
79.54
78.16
72.69
64.64
55.45
46.35
38.30
31.98
27.70
25.34
24.42
24.23
24.03
23.34
22.10
20.64
19.51
19.18
19.65
20.47
20.88
20.32
18.80
17.07
16.29
17.38
20.41
24.30
27.18
27.10
22.80
14.02
1.20
-15.00
-34.13
-55.98
-80.20
-105.79
-130.92
-153.29
-170.96
-183.17
-190.75
-195.87
-201.05
-208.06
-217.05
-226.29
-232.69
-232.72
-223.62
-204.32
-175.88
-141.23
-104.43
-69.57
-39.88
-17.10
-1.47
7.93
12.68
14.55
15.38
16.93
20.75
27.82
38.13
50.41
62.39
71.69
76.89
78.32
78.10
79.23
84.17
93.61
106.22
119.33
130.26
137.55
141.33
142.87
143.50
143.64
142.60
139.07
131.99
121.25
107.80
93.19
78.85
65.66
53.91
43.71
35.45
30.10
29.07
33.63
44.00
58.62
73.91
85.21
88.56
82.59
69.46
54.10
42.12
37.22
39.87
47.77
57.81
68.18
79.05
91.58
106.10
121.14
133.86
141.89
144.79
143.99
141.25
136.71
128.37
113.43
90.77
62.67
34.59
12.84
1.44
0.42
6.27
14.49
22.36
30.17
40.41
55.44
75.28
97.07
116.29
128.97
133.59
131.56
126.22
120.93
117.57
115.79
113.69
109.00
100.29
87.49
71.76
54.81
38.21
22.80
8.59
-5.16
-19.47
-35.25
-52.92
-72.12
-91.92
-111.07
-128.44
-143.53
-156.86
-169.93
-184.93
-204.25
-229.87
-262.46
-300.65
-340.44
-375.44
-397.85
-400.47
-379.32
-335.85
-277.71
-217.12
-167.26
-137.96
-132.60
-147.39
-173.48
-200.37
-219.26
-224.96
-216.00
-193.70
-161.19
-122.77
-83.72
-49.88
-26.55
-16.90
-20.66
-33.98
-50.57
-63.65
-68.05
-61.54
-45.30
-23.17
-0.22
18.82
30.89
35.28
33.48
28.43
23.40
20.98
22.42
27.66
35.62
44.86
54.00
61.97
67.98
71.48
72.08
69.58
63.92
55.20
43.70
30.05
15.19
0.38
-13.10
-24.28
-32.71
-38.49
-41.94
-43.27
-42.44
-39.39
-34.41
-28.47
-23.06
-19.72
-19.40
-22.00
-26.60
-32.00
-37.42
-42.70
-48.19
-54.12
-60.12
-65.09
-67.56
-66.42
-61.44
-53.48
-43.98
-34.46
-25.80
-18.13
-10.90
-3.13
6.39
18.97
35.73
57.05
81.96
107.90
131.06
147.31
153.34
147.53
130.27
103.72
71.23
37.06
5.94
-17.36
-28.91
-26.61
-11.13
13.98
42.94
69.36
87.92
95.77
93.06
82.48
68.20
54.50
44.78
40.92
43.28
50.82
61.49
72.53
80.95
84.23
80.94
71.29
57.09
41.38
27.44
17.89
13.91
14.91
18.66
22.04
21.98
16.47
5.22
-10.34
-27.73
-44.46
-59.01
-71.05
-81.05
-89.44
-95.90
-99.40
-98.79
-93.62
-84.52
-72.76
-59.59
-45.50
-30.22
-13.42
4.29
20.80
32.76
36.74
30.64
14.85
-7.69
-32.11
-53.06
-66.07
-68.71
-61.22
-46.35
-28.75
-13.65
-5.48
-6.40
-15.73
-30.07
-44.47
-54.11
-55.73
-48.53
-34.00
-15.49
2.59
15.51
19.08
10.84
-8.84
-36.26
-65.01
-87.90
-99.40
-97.42
-83.73
-62.64
-39.09
-17.11
0.77
13.18
19.31
18.92
12.79
3.07
-6.83
-13.30
-13.72
-7.37
4.52
19.25
33.52
44.28
49.34
47.89
40.78
30.40
19.97
12.38
9.02
9.32
11.11
11.82
9.80
5.00
-1.09
-6.32
-8.88
-7.85
-3.29
4.07
13.17
22.80
31.62
38.34
41.92
42.01
39.09
34.37
29.39
25.50
23.47
23.50
25.42
29.04
34.53
42.28
52.59
65.14
78.68
91.11
100.12
104.06
102.54
96.60
88.03
78.80
70.39
63.66
59.01
56.33
54.94
53.21
48.66
38.50
20.71
-4.91
-36.33
-69.68
-100.40
-124.38
-138.79
-142.33
-135.17
-118.86
-96.28
-71.40
-48.70
-32.01
-23.41
-22.44
-26.16
-30.19
-30.29
-24.04
-11.71
3.85
18.28
27.44
28.86
22.48
10.44
-3.98
-17.66
-28.60
-36.15
-40.71
-43.09
-43.87
-43.31
-41.35
-37.85
-32.69
-25.81
-17.29
-7.42
3.19
13.59
22.80
30.22
35.98
40.89
45.73
50.55
54.15
54.38
49.13
37.52
20.47
0.20
-20.95
-41.74
-62.44
-84.10
-107.13
-130.05
-149.24
-159.86
-157.75
-141.16
-111.77
-74.32
-35.35
-1.44
22.32
33.29
31.27
18.13
-2.87
-27.70
-51.95
-71.18
-81.29
-79.14
-63.25
-34.30
4.67
48.90
92.93
131.96
162.90
184.87
198.90
207.08
211.51
213.41
212.94
209.53
202.46
191.51
177.15
160.43
142.57
124.54
106.82
89.45
72.20
54.95
37.89
21.71
7.38
-4.08
-12.05
-16.56
-18.40
-18.96
-19.80
-22.21
-26.90
-33.87
-42.54
-51.90
-60.70
-67.55
-71.17
-70.55
-65.28
-55.74
-43.09
-28.99
-15.24
-3.33
5.82
11.87
14.94
15.41
13.83
10.82
7.09
3.43
0.53
-1.04
-1.05
0.41
2.89
5.69
7.99
9.13
8.78
7.16
4.96
3.06
2.18
2.51
3.59
4.46
4.12
1.94
-2.09
-7.27
-12.45
-16.34
-17.96
-16.95
-13.85
-10.02
-7.26
-7.21
-10.75
-17.63
-26.52
-35.37
-42.21
-45.62
-45.18
-41.27
-34.84
-27.04
-18.95
-11.53
-5.66
-2.10
-1.36
-3.51
-7.88
-13.15
-17.56
-19.48
-17.86
-12.72
-5.06
3.37
10.67
15.28
16.31
13.70
8.06
0.54
-7.36
-14.11
-18.29
-19.04
-16.22
-10.52
-3.31
3.78
9.39
12.78
13.94
13.49
12.27
11.10
10.49
10.68
11.67
13.30
15.28
17.13
18.29
18.20
16.53
13.38
9.21
4.78
0.83
-2.12
-3.94
-4.78
-5.00
-5.01
-5.08
-5.40
-6.09
-7.25
-9.02
-11.52
-14.76
-18.49
-22.18
-25.07
-26.47
-26.00
-23.86
-20.77
-17.66
-15.34
-14.09
-13.66
-13.39
-12.56
-10.64
-7.51
-3.40
1.15
5.44
8.77
10.52
10.28
7.96
3.88
-1.26
-6.51
-10.93
-13.82
-14.94
-14.49
-13.02
-11.14
-9.39
-8.04
-7.16
-6.71
-6.68
-7.19
-8.51
-10.95
-14.69
-19.68
-25.55
-31.68
-37.38
-42.05
-45.22
-46.53
-45.70
-42.56
-37.19
-29.97
-21.73
-13.60
-6.65
-1.61
1.38
2.83
3.69
4.92
7.25
10.84
15.34
20.01
24.06
26.88
28.30
28.61
28.46
28.61
29.62
31.56
33.92
35.75
35.90
33.48
28.14
20.20
10.70
1.11
-6.83
-11.67
-12.53
-9.56
-3.81
3.06
9.44
14.34
17.71
20.27
23.07
26.83
31.60
36.73
41.05
43.31
42.50
38.01
29.78
18.27
4.42
-10.38
-24.46
-36.03
-43.46
-45.70
-42.57
-34.88
-24.33
-13.01
-2.81
4.97
9.79
11.71
11.07
8.28
3.77
-1.90
-7.97
-13.54
-17.84
-20.38
-21.16
-20.52
-18.96
-16.82
-14.19
-10.99
-7.08
-2.55
2.27
6.81
10.40
12.47
12.59
10.55
6.42
0.65
-5.81
-11.56
-15.02
-14.81
-10.26
-1.68
9.68
21.99
33.36
42.32
47.95
49.93
48.31
43.46
35.96
26.74
16.99
8.08
1.27
-2.59
-3.33
-1.46
1.94
5.53
8.08
8.84
7.58
4.61
0.53
-3.94
-8.17
-11.59
-13.75
-14.23
-12.81
-9.57
-4.99
0.11
4.83
8.41
10.52
11.29
11.22
10.88
10.83
11.49
13.10
15.66
18.97
22.51
25.47
26.86
25.82
21.82
14.95
5.97
-3.93
-13.32
-21.03
-26.35
-29.17
-29.86
-29.09
-27.47
-25.42
-23.05
-20.28
-17.08
-13.61
-10.37
-8.07
-7.45
-8.95
-12.56
-17.68
-23.34
-28.50
-32.32
-34.43
-34.90
-34.11
-32.50
-30.35
-27.69
-24.26
-19.68
-13.65
-6.11
2.63
11.87
20.60
27.74
32.46
34.33
33.47
30.45
26.06
21.18
16.57
12.86
10.49
9.64
10.17
11.58
13.22
14.44
14.88
14.56
13.78
12.95
12.28
11.70
10.86
9.31
6.69
2.89
-1.90
-7.16
-12.19
-16.14
-18.29
-18.16
-15.64
-11.02
-4.82
2.23
9.42
16.04
21.55
25.54
27.89
28.69
28.26
26.92
24.94
22.43
19.42
16.00
12.54
9.72
8.50
9.89
14.56
22.52
32.87
43.83
53.05
58.23
57.72
51.07
39.17
23.98
7.92
-6.78
-18.57
-26.81
-31.69
-33.93
-34.56
-34.79
-35.81
-38.60
-43.64
-50.65
-58.48
-65.35
-69.31
-68.82
-63.20
-52.82
-38.99
-23.70
-9.23
2.18
8.79
9.63
4.75
-4.70
-16.70
-28.78
-38.50
-43.89
-43.79
-37.95
-27.03
-12.44
3.91
19.96
33.81
44.02
49.70
50.56
46.89
39.52
29.77
19.33
9.99
3.29
0.21
0.99
5.10
11.47
18.77
25.74
31.37
35.02
36.44
35.80
33.64
30.86
28.48
27.48
28.47
31.48
35.95
40.85
45.06
47.75
48.61
47.89
46.15
43.96
41.58
39.01
36.05
32.53
28.44
23.99
19.39
14.86
10.47
6.25
2.26
-1.30
-4.13
-5.99
-6.78
-6.64
-5.86
-4.81
-3.78
-2.88
-2.06
-1.09
0.28
2.23
4.76
7.65
10.56
13.17
15.34
17.23
19.24
21.78
24.98
28.57
31.92
34.23
34.94
33.92
31.56
28.56
25.65
23.30
21.55
20.00
18.02
14.96
10.46
4.59
-2.16
-9.10
-15.72
-21.86
-27.82
-34.15
-41.29
-49.28
-57.64
-65.51
-71.85
-75.76
-76.70
-74.67
-70.14
-64.01
-57.37
-51.16
-45.83
-41.17
-36.43
-30.52
-22.52
-11.99
0.72
14.44
27.29
37.05
41.85
40.76
34.26
24.09
12.60
1.79
-7.38
-15.14
-22.28
-29.35
-36.15
-41.79
-45.41
-47.01
-47.75
-49.55
-54.21
-62.58
-74.04
-86.86
-98.87
-108.12
-113.36
-114.06
-110.23
-102.29
-90.88
-76.94
-61.71
-46.68
-33.40
-23.12
-16.51
-13.46
-13.07
-13.88
-14.31
-13.03
-9.34
-3.25
4.58
13.23
21.80
29.65
36.44
42.05
46.34
49.01
49.54
47.38
42.10
33.70
22.73
10.32
-2.08
-12.93
-20.94
-25.35
-25.95
-23.14
-17.79
-11.24
-5.10
-1.03
-0.46
-4.15
-12.02
-22.96
-35.24
-46.89
-56.32
-62.67
-65.84
-66.32
-64.75
-61.67
-57.53
-52.75
-47.91
-43.64
-40.52
-38.63
-37.44
-35.80
-32.44
-26.40
-17.58
-6.83
4.25
13.85
20.50
23.59
23.43
21.16
18.30
16.27
16.02
17.91
21.85
27.49
34.40
42.05
49.75
56.72
62.13
65.40
66.32
65.09
62.11
57.80
52.51
46.59
40.55
35.16
31.27
29.55
30.11
32.38
35.24
37.41
37.76
35.73
31.43
25.68
19.80
15.17
12.89
13.25
15.67
18.77
20.95
21.04
18.83
15.13
11.37
9.03
8.97
11.28
15.39
20.45
25.64
30.35
34.11
36.59
37.61
37.22
35.76
33.76
31.74
29.95
28.24
26.11
23.03
18.64
12.89
6.00
-1.72
-9.99
-18.64
-27.42
-35.74
-42.50
-46.21
-45.41
-39.24
-28.00
-13.13
2.94
17.33
27.37
31.23
28.39
19.86
7.98
-4.34
-14.59
-21.49
-25.24
-27.09
-28.53
-30.71
-34.25
-39.50
-46.85
-56.64
-68.62
-81.51
-93.08
-100.96
-103.78
-101.97
-97.55
-93.00
-89.75
-87.19
-82.69
-72.83
-55.27
-30.23
-0.96
27.16
48.47
59.15
58.53
49.16
35.84
24.02
18.50
22.55
37.71
63.59
97.80
135.92
172.03
199.90
214.68
214.33
200.16
176.26
147.91
119.91
95.41
75.66
60.44
48.88
39.98
32.85
26.54
19.92
11.70
0.79
-13.17
-29.49
-46.39
-61.53
-72.81
-79.22
-81.21
-80.50
-79.27
-79.28
-81.19
-84.45
-87.71
-89.59
-89.33
-87.16
-84.14
-81.49
-79.91
-78.93
-76.91
-71.45
-60.33
-42.33
-17.73
11.59
42.53
71.24
93.94
107.72
111.30
105.49
93.01
77.67
63.18
52.02
44.92
41.15
39.28
38.09
37.01
36.07
35.39
34.65
32.99
29.22
22.38
12.32
-0.08
-13.03
-24.29
-31.89
-34.72
-32.67
-26.53
-17.54
-7.09
3.48
12.85
19.68
22.74
21.19
15.06
5.37
-5.87
-16.12
-23.04
-25.13
-22.13
-15.06
-5.89
3.14
10.06
13.65
13.48
9.85
3.48
-4.77
-14.12
-23.86
-33.43
-42.42
-50.52
-57.58
-63.50
-68.05
-70.78
-71.00
-68.01
-61.46
-51.62
-39.55
-26.89
-15.56
-7.22
-2.88
-2.69
-5.91
-11.20
-16.98
-21.78
-24.60
-25.09
-23.47
-20.35
-16.49
-12.59
-9.09
-6.28
-4.26
-3.07
-2.72
-3.13
-4.10
-5.34
-6.38
-6.82
-6.36
-4.93
-2.67
0.13
3.12
6.01
8.50
10.34
11.35
11.58
11.37
11.42
12.49
15.24
19.85
25.98
32.95
40.04
46.83
53.28
59.57
65.86
72.07
77.81
82.58
85.91
87.55
87.48
85.82
82.80
78.65
73.72
68.38
63.03
57.96
53.26
48.79
44.32
39.72
35.09
30.73
26.98
23.99
21.68
19.77
18.15
17.08
17.22
19.21
23.22
28.63
34.14
38.27
40.05
39.43
37.18
34.52
32.45
31.43
31.30
31.57
31.69
31.11
29.32
25.74
19.86
11.38
0.50
-12.09
-25.27
-37.76
-48.42
-56.39
-61.25
-62.98
-61.82
-58.24
-52.77
-46.06
-38.79
-31.69
-25.49
-20.84
-18.17
-17.63
-19.10
-22.28
-26.81
-32.25
-37.99
-43.14
-46.53
-46.93
-43.44
-35.91
-25.09
-12.53
-0.19
10.06
16.83
19.56
18.54
14.81
9.77
4.65
0.12
-3.99
-8.45
-14.12
-21.25
-29.15
-36.30
-41.07
-42.47
-40.77
-37.37
-34.10
-32.33
-32.29
-33.07
-33.33
-32.24
-30.09
-28.09
-27.59
-29.26
-32.84
-37.50
-42.28
-46.14
-47.57
-44.31
-33.89
-14.99
10.76
38.30
60.57
71.58
69.52
57.93
43.97
34.73
33.50
38.08
42.10
38.12
21.12
-9.56
-50.06
-93.66
-133.15
-163.02
-181.04
-188.59
-189.70
-189.14
-190.17
-193.03
-194.95
-191.89
-180.89
-161.59
-136.32
-108.58
-81.35
-56.30
-34.38
-16.87
-5.88
-3.64
-10.63
-24.15
-38.10
-44.85
-38.12
-15.59
19.97
61.58
100.31
128.10
139.80
134.37
114.93
88.00
62.08
45.88
46.43
67.36
107.86
162.84
224.31
283.81
334.81
374.16
401.86
419.53
428.52
428.73
418.76
397.11
363.46
319.41
268.24
214.11
161.27
113.30
72.83
41.11
17.65
0.35
-13.76
-27.27
-41.24
-54.81
-66.02
-73.40
-77.28
-80.11
-85.75
-97.59
-117.21
-144.06
-176.15
-211.05
-246.19
-278.37
-304.18
-320.81
-327.99
-329.25
-330.73
-337.62
-350.37
-362.95
-365.14
-347.83
-308.70
-254.75
-199.77
-157.99
-137.34
-136.13
-144.59
-150.21
-143.57
-121.84
-88.67
-51.45
-17.56
8.64
26.50
37.98
45.77
51.57
55.83
58.44
59.63
60.43
61.76
63.61
64.60
62.48
55.35
42.75
25.78
6.20
-14.70
-36.62
-59.67
-83.07
-104.16
-118.61
-121.90
-111.43
-87.98
-55.65
-20.47
11.46
35.64
49.97
54.76
52.35
46.63
42.21
43.37
53.03
71.92
98.17
127.75
155.76
178.14
193.05
201.26
205.31
207.81
209.87
210.51
207.32
198.02
182.04
161.12
138.61
117.77
100.24
85.52
71.68
56.71
39.69
21.13
2.39
-15.07
-30.22
-42.54
-51.81
-57.86
-60.52
-59.85
-56.42
-51.33
-46.05
-42.02
-40.26
-41.04
-43.81
-47.35
-50.06
-50.42
-47.45
-41.22
-33.00
-24.99
-19.61
-18.51
-21.92
-28.56
-36.24
-42.76
-46.68
-47.47
-45.39
-40.89
-34.38
-26.22
-17.02
-7.68
0.70
7.21
11.53
13.97
15.30
16.23
16.91
16.79
14.86
10.15
2.36
-7.81
-18.78
-28.66
-35.96
-39.96
-40.74
-38.75
-34.32
-27.36
-17.55
-4.95
9.27
22.49
31.07
31.59
22.46
4.89
-17.03
-37.81
-52.58
-58.79
-56.75
-48.64
-36.89
-22.90
-7.01
10.56
28.43
43.86
53.66
55.90
51.03
41.73
31.46
22.87
16.78
12.54
9.17
6.50
5.48
7.59
13.75
23.50
34.99
45.70
53.36
56.76
55.82
51.29
44.23
35.57
26.09
16.45
7.33
-0.55
-6.46
-9.88
-10.64
-9.03
-5.72
-1.55
2.70
6.49
9.52
11.67
12.88
13.10
12.33
10.64
8.30
5.88
4.08
3.51
4.45
6.72
9.82
13.15
16.35
19.23
21.71
23.50
24.13
23.03
19.96
15.09
9.05
2.60
-3.64
-9.29
-14.20
-18.22
-21.16
-22.81
-23.08
-22.04
-19.88
-16.87
-13.24
-9.35
-5.57
-2.29
0.17
1.76
2.66
3.21
3.72
4.30
4.91
5.49
5.99
6.50
7.08
7.72
8.24
8.37
7.94
6.99
5.88
5.10
4.90
5.02
4.70
2.95
-0.89
-6.69
-13.48
-19.79
-24.20
-25.82
-24.40
-20.13
-13.36
-4.47
5.98
16.90
26.51
32.61
33.12
26.91
14.22
-3.29
-23.00
-41.93
-57.32
-67.05
-69.80
-65.13
-53.52
-36.45
-16.18
4.52
22.95
36.95
45.29
47.65
44.45
36.51
24.93
11.03
-3.77
-18.01
-30.43
-40.03
-46.06
-47.92
-45.01
-36.88
-23.61
-6.19
13.44
32.73
49.19
60.82
66.13
63.94
53.25
33.75
6.58
-24.92
-55.49
-79.15
-91.12
-89.24
-74.53
-50.48
-21.73
7.10
32.14
50.35
59.45
58.12
46.39
25.99
0.41
-25.54
-46.64
-58.28
-57.54
-43.83
-19.20
12.03
44.19
71.40
88.76
93.26
84.15
63.03
33.50
0.60
-29.98
-52.86
-63.94
-61.22
-45.23
-19.02
12.38
42.90
66.53
78.53
76.41
60.45
33.70
1.26
-30.85
-56.96
-72.86
-76.47
-68.08
-50.11
-26.51
-2.01
18.90
32.84
38.23
35.43
26.36
13.76
0.38
-11.56
-20.45
-25.32
-25.56
-20.97
-11.79
1.11
16.14
31.00
42.98
49.44
48.47
39.43
23.32
2.61
-19.21
-38.56
-52.43
-58.92
-57.30
-47.98
-32.29
-12.45
8.57
27.50
41.34
48.14
47.44
40.29
28.73
15.10
1.49
-10.53
-19.77
-25.37
-26.74
-23.71
-16.82
-7.38
2.75
11.59
17.56
19.82
18.28
13.53
6.51
-1.68
-9.86
-16.95
-22.01
-24.30
-23.39
-19.22
-12.15
-3.02
6.96
16.37
23.91
28.71
30.40
29.18
25.56
20.18
13.68
6.76
0.13
-5.45
-9.40
-11.52
-12.03
-11.37
-9.98
-8.05
-5.51
-2.29
1.55
5.58
9.16
11.70
12.96
13.11
12.65
12.15
12.00
12.27
12.81
13.38
13.76
13.85
13.59
13.00
12.21
11.52
11.43
12.43
14.70
17.90
21.11
23.23
23.48
21.79
18.88
15.88
13.77
12.94
13.05
13.38
13.35
12.87
12.37
12.54
13.89
16.44
19.68
22.81
25.14
26.49
27.21
28.13
30.19
34.11
40.13
47.86
56.23
63.51
67.63
66.73
59.94
47.92
32.99
18.65
8.51
5.00
8.28
16.19
25.04
31.13
32.14
27.64
18.64
6.76
-6.65
-20.95
-36.18
-53.00
-72.36
-94.99
-120.80
-148.27
-174.34
-194.99
-206.36
-206.04
-193.79
-171.32
-141.25
-105.97
-66.93
-24.76
20.15
66.81
113.09
155.77
191.19
216.35
229.82
232.33
226.22
214.28
198.41
179.02
155.52
127.61
96.30
64.18
34.51
9.86
-8.80
-22.21
-32.02
-39.72
-46.00
-50.70
-53.23
-53.11
-50.46
-46.10
-41.32
-37.49
-35.60
-36.03
-38.51
-42.38
-46.86
-51.38
-55.53
-59.02
-61.54
-62.70
-62.20
-59.94
-56.12
-51.23
-45.93
-40.89
-36.60
-33.32
-31.01
-29.39
-28.07
-26.65
-24.87
-22.61
-20.01
-17.21
-14.34
-11.43
-8.43
-5.36
-2.37
0.23
2.07
2.93
2.79
1.87
0.47
-1.09
-2.61
-3.93
-4.96
-5.57
-5.65
-5.20
-4.33
-3.30
-2.41
-1.86
-1.70
-1.81
-2.01
-2.07
-1.83
-1.14
0.12
2.07
4.80
8.22
12.09
16.02
19.53
22.18
23.65
23.78
22.52
19.98
16.36
11.95
7.18
2.50
-1.61
-4.81
-6.96
-8.15
-8.64
-8.77
-8.80
-8.85
-8.90
-8.88
-8.82
-8.84
-9.23
-10.20
-11.85
-14.03
-16.42
-18.64
-20.40
-21.56
-22.11
-22.08
-21.49
-20.38
-18.84
-17.06
-15.30
-13.74
-12.43
-11.20
-9.80
-8.16
-6.60
-5.82
-6.79
-10.25
-16.28
-24.06
-31.97
-38.03
-40.48
-38.21
-31.00
-19.50
-5.08
10.46
25.01
36.56
43.49
44.95
40.96
32.37
20.49
6.79
-7.35
-20.82
-32.73
-42.60
-50.28
-56.04
-60.21
-62.97
-64.06
-62.82
-58.62
-51.23
-41.17
-29.60
-17.91
-7.18
2.14
10.30
17.88
25.49
33.41
41.50
49.27
56.07
61.23
64.20
64.62
62.41
57.88
51.75
45.07
38.94
34.08
30.61
28.01
25.49
22.43
18.69
14.53
10.34
6.34
2.63
-0.59
-2.74
-3.07
-1.13
2.60
6.65
9.08
8.60
5.43
1.41
-0.86
0.48
5.52
12.59
19.22
23.31
23.86
20.98
15.28
7.53
-1.36
-10.12
-16.95
-19.95
-17.97
-11.47
-2.64
5.34
9.61
8.64
2.62
-6.93
-18.05
-28.91
-38.08
-44.45
-47.23
-46.17
-41.75
-35.31
-28.73
-23.95
-22.21
-23.68
-27.48
-32.07
-35.86
-37.61
-36.72
-33.12
-27.25
-19.80
-11.60
-3.47
3.93
10.23
15.51
20.26
25.26
31.25
38.60
47.10
55.98
64.19
70.86
75.39
77.50
77.01
73.72
67.53
58.60
47.61
35.57
23.55
12.27
1.98
-7.29
-15.42
-21.96
-26.31
-28.20
-28.05
-26.98
-26.35
-27.15
-29.51
-32.67
-35.45
-36.76
-36.10
-33.61
-29.90
-25.78
-21.89
-18.58
-15.97
-13.99
-12.57
-11.70
-11.52
-12.25
-14.09
-17.06
-20.84
-24.65
-27.42
-28.05
-25.86
-20.92
-14.11
-6.81
-0.38
4.39
7.45
9.30
10.62
11.84
13.03
13.99
14.59
14.87
15.06
15.45
16.16
17.10
17.86
17.97
16.94
14.55
10.87
6.34
1.70
-2.21
-4.61
-4.86
-2.64
1.91
8.02
14.24
18.68
19.52
15.75
7.66
-3.10
-14.09
-22.90
-27.91
-28.67
-25.77
-20.41
-13.93
-7.57
-2.31
1.12
2.34
1.43
-1.04
-4.10
-6.61
-7.62
-6.57
-3.55
0.78
5.39
9.20
11.46
12.04
11.38
10.30
9.67
9.95
10.85
11.38
10.11
5.91
-1.43
-10.83
-20.21
-27.15
-29.90
-28.01
-22.40
-14.86
-7.24
-0.76
4.20
7.96
11.13
14.25
17.79
22.17
27.68
34.12
40.41
44.55
44.17
37.57
24.90
8.64
-7.12
-18.31
-22.53
-20.00
-13.08
-4.77
2.85
9.24
15.08
21.15
27.33
32.46
34.95
33.55
27.96
18.88
7.74
-3.45
-12.22
-15.94
-12.76
-2.78
11.14
23.97
30.26
26.54
12.63
-8.70
-33.46
-58.36
-81.32
-100.79
-114.44
-118.90
-110.98
-89.92
-58.92
-24.68
5.01
24.33
31.42
28.43
19.70
9.65
1.29
-4.07
-6.34
-5.93
-3.45
0.37
4.67
8.53
11.15
11.96
10.78
7.88
3.98
0.13
-2.47
-2.89
-0.75
3.51
8.82
13.71
16.85
17.43
15.37
11.33
6.38
1.73
-1.65
-3.30
-3.25
-1.91
0.22
2.81
5.80
9.27
13.19
17.20
20.61
22.70
23.00
21.64
19.21
16.54
14.20
12.22
10.13
7.29
3.31
-1.68
-7.09
-12.13
-16.22
-19.12
-20.94
-21.90
-22.16
-21.77
-20.82
-19.64
-18.82
-18.97
-20.48
-23.12
-26.05
-28.10
-28.17
-25.68
-20.69
-13.87
-6.17
1.42
8.02
13.05
16.21
17.55
17.48
16.67
15.85
15.64
16.26
17.54
19.00
20.10
20.46
20.05
19.20
18.45
18.32
19.11
20.75
22.89
25.07
26.98
28.54
29.94
31.53
33.61
36.27
39.33
42.22
44.02
43.58
39.89
32.54
22.11
10.11
-1.49
-11.01
-17.64
-21.64
-23.89
-25.34
-26.41
-26.81
-25.90
-23.16
-18.50
-12.46
-5.88
0.36
5.64
9.78
12.97
15.66
18.31
21.16
24.15
26.97
29.19
30.41
30.26
28.44
24.90
20.13
15.33
12.08
11.44
12.89
14.01
11.26
1.84
-14.60
-35.28
-55.31
-69.86
-76.20
-74.52
-67.19
-57.12
-46.42
-36.00
-26.23
-17.76
-11.76
-9.56
-11.79
-17.88
-26.17
-34.42
-40.57
-43.22
-41.93
-37.21
-30.46
-23.55
-18.43
-16.50
-18.28
-23.26
-30.07
-36.76
-41.09
-40.64
-33.37
-18.35
3.24
27.59
48.70
60.09
57.20
39.73
12.30
-16.92
-39.47
-49.99
-48.25
-38.65
-27.63
-20.40
-18.68
-20.62
-22.53
-21.27
-15.99
-8.12
-0.13
6.14
10.41
13.70
17.33
21.86
26.86
31.46
35.12
38.25
41.99
47.45
54.77
62.61
68.53
70.00
65.61
55.79
42.63
29.04
17.52
9.34
4.31
1.24
-1.38
-4.71
-9.28
-14.96
-21.20
-27.27
-32.39
-35.82
-36.99
-35.55
-31.44
-24.88
-16.35
-6.48
3.91
13.94
22.74
29.60
34.14
36.36
36.63
35.52
33.61
31.33
28.92
26.41
23.79
21.00
17.97
14.61
10.79
6.45
1.69
-3.18
-7.75
-11.65
-14.75
-17.15
-19.10
-20.78
-22.19
-23.19
-23.64
-23.53
-23.07
-22.43
-21.63
-20.43
-18.51
-15.73
-12.40
-9.19
-6.93
-6.17
-6.90
-8.50
-9.95
-10.22
-8.61
-5.07
-0.22
4.71
8.27
9.32
7.43
3.10
-2.47
-7.77
-11.45
-12.47
-10.19
-4.18
5.68
19.03
34.87
51.50
66.85
79.05
86.80
89.59
87.47
80.78
70.06
56.06
40.03
23.64
8.74
-3.17
-11.43
-16.28
-18.65
-19.64
-20.15
-20.58
-20.89
-20.85
-20.26
-19.11
-17.48
-15.56
-13.48
-11.30
-9.08
-6.95
-5.15
-4.04
-3.97
-5.07
-7.18
-9.78
-12.19
-13.75
-14.05
-13.04
-10.97
-8.27
-5.39
-2.71
-0.42
1.44
2.94
4.16
5.18
5.94
6.30
6.12
5.31
3.90
1.98
-0.35
-3.02
-5.87
-8.60
-10.73
-11.77
-11.49
-10.19
-8.64
-7.90
-8.78
-11.51
-15.65
-20.22
-24.11
-26.45
-26.86
-25.35
-22.33
-18.46
-14.52
-11.28
-9.27
-8.58
-8.74
-8.83
-7.76
-4.72
0.38
6.68
12.48
15.62
14.30
7.75
-3.33
-16.79
-29.73
-39.33
-43.62
-41.93
-34.71
-23.03
-7.99
9.58
28.99
49.52
70.24
90.03
107.85
123.02
135.46
145.47
153.31
158.63
160.33
156.85
147.02
130.80
109.67
86.09
62.60
40.83
21.36
4.11
-10.73
-22.18
-28.73
-29.28
-24.38
-16.74
-10.68
-10.50
-18.82
-35.43
-57.38
-80.25
-99.87
-113.73
-121.30
-123.35
-121.03
-115.22
-106.69
-96.50
-86.01
-76.04
-66.03
-54.09
-38.10
-17.47
6.04
29.43
50.67
70.60
92.54
119.59
151.19
181.56
201.27
201.55
178.43
134.53
77.64
17.50
-37.12
-79.93
-107.15
-117.33
-111.54
-93.78
-70.42
-48.43
-32.82
-24.62
-20.69
-15.59
-4.44
14.76
40.55
68.97
95.42
116.18
129.10
133.61
130.24
120.32
105.70
88.61
71.29
55.43
41.58
28.85
15.21
-1.66
-22.89
-47.12
-70.03
-85.47
-87.59
-73.25
-43.68
-4.44
36.16
69.31
87.93
88.16
69.96
36.89
-4.68
-47.07
-83.02
-107.54
-119.02
-119.28
-112.40
-102.87
-94.05
-87.43
-82.92
-79.71
-77.15
-75.14
-74.17
-74.70
-76.49
-78.34
-78.34
-74.62
-66.15
-53.46
-38.53
-24.28
-13.55
-8.20
-8.45
-12.81
-18.70
-23.38
-24.97
-23.17
-19.22
-15.00
-11.99
-10.43
-9.41
-7.84
-5.65
-4.20
-5.67
-11.70
-21.93
-33.79
-43.36
-47.10
-43.67
-34.52
-23.17
-13.40
-7.60
-5.97
-7.11
-9.27
-11.38
-12.86
-12.63
-8.04
4.60
27.89
60.70
96.90
126.97
142.03
138.30
119.08
93.25
70.85
58.34
56.49
61.32
67.24
70.05
68.21
61.99
51.89
38.19
21.54
3.93
-11.53
-22.00
-26.41
-25.82
-22.09
-16.19
-7.49
4.91
19.87
33.01
37.92
29.42
6.85
-25.15
-59.09
-88.67
-111.75
-130.26
-147.44
-164.67
-180.14
-190.24
-192.16
-185.59
-172.57
-155.58
-135.81
-112.67
-84.89
-52.05
-15.57
21.73
57.00
88.66
116.89
142.94
167.74
190.86
210.17
222.38
224.10
213.21
190.08
158.01
122.89
91.76
70.43
61.38
62.60
68.26
70.84
63.96
44.53
13.41
-25.59
-67.67
-108.69
-145.91
-177.55
-201.93
-217.00
-220.76
-212.44
-193.55
-168.06
-141.44
-118.73
-102.79
-93.57
-88.76
-85.31
-80.84
-74.00
-64.02
-49.91
-30.64
-6.17
21.20
46.24
62.19
63.51
48.86
22.30
-7.82
-31.95
-42.67
-36.42
-13.36
24.22
73.14
129.45
187.51
239.47
276.29
290.54
279.92
249.28
209.49
173.40
150.66
143.99
148.93
156.81
159.34
152.21
136.30
116.19
97.58
84.84
79.81
81.83
88.30
95.48
99.30
96.23
84.40
64.42
39.49
14.41
-6.22
-19.92
-27.44
-32.36
-39.80
-54.53
-79.61
-115.74
-161.30
-212.80
-265.58
-314.57
-355.18
-384.26
-400.60
-405.04
-399.78
-387.30
-369.52
-347.49
-321.78
-293.07
-262.59
-232.00
-202.82
-175.84
-150.80
-126.70
-102.37
-77.42
-52.77
-30.78
-14.37
-5.63
-4.40
-7.46
-8.94
-1.76
20.13
59.64
115.21
180.63
246.21
300.90
335.01
342.89
324.73
286.73
239.44
194.37
160.41
141.31
135.26
136.68
138.93
137.00
128.80
115.11
98.55
82.45
70.12
64.43
67.45
79.79
99.76
123.02
143.29
154.12
151.35
134.80
108.53
79.18
53.20
34.12
21.21
10.00
-5.65
-30.88
-67.92
-115.39
-169.02
-223.08
-271.99
-311.45
-338.89
-353.54
-356.01
-347.91
-331.44
-309.06
-283.12
-255.59
-227.75
-200.14
-172.66
-145.08
-117.44
-90.39
-65.02
-42.29
-22.55
-5.36
10.08
24.16
36.27
44.92
48.51
46.53
40.34
33.39
30.51
36.68
55.71
88.97
134.66
187.46
239.16
280.17
301.97
299.73
274.12
231.44
181.76
135.59
100.68
80.00
71.77
71.21
72.92
72.85
69.11
61.78
52.37
43.28
37.58
38.49
48.53
68.19
94.98
123.43
146.33
156.92
150.88
127.62
90.38
45.37
0.41
-36.87
-60.94
-70.04
-66.99
-58.44
-52.58
-56.12
-71.77
-97.57
-128.20
-157.38
-180.16
-193.99
-198.49
-194.59
-183.80
-167.94
-149.06
-129.35
-110.55
-93.46
-77.68
-61.97
-44.95
-25.95
-5.42
14.99
32.87
45.58
51.18
48.80
39.08
23.71
4.58
-17.21
-42.09
-72.13
-110.40
-159.78
-221.15
-292.03
-365.93
-433.34
-484.02
-510.12
-508.76
-482.88
-439.98
-389.18
-338.19
-291.30
-249.36
-211.04
-174.58
-138.83
-103.39
-68.24
-33.17
2.14
37.91
74.00
109.99
145.41
180.32
215.84
253.84
296.04
342.39
389.83
432.13
461.34
470.44
456.10
420.08
368.66
310.24
252.48
200.20
154.97
116.17
82.49
53.12
27.92
6.95
-10.17
-24.52
-37.52
-50.35
-63.41
-76.00
-86.75
-94.31
-98.15
-98.95
-98.44
-98.55
-100.29
-103.08
-104.74
-102.48
-94.24
-79.69
-60.49
-39.49
-19.48
-2.12
12.36
24.66
35.67
45.77
54.82
62.49
68.43
72.36
73.83
72.13
66.63
57.46
46.08
35.24
28.20
27.47
33.70
45.42
59.73
73.61
85.05
93.45
99.36
103.70
107.08
109.54
110.63
109.75
106.53
100.93
93.31
84.28
74.61
65.10
56.49
49.27
43.57
39.06
34.98
30.27
23.87
15.05
3.71
-9.45
-23.03
-35.33
-44.96
-51.22
-54.34
-55.23
-55.04
-54.69
-54.68
-55.05
-55.53
-55.74
-55.32
-53.85
-50.91
-46.08
-39.02
-29.56
-17.75
-3.96
11.04
25.98
39.12
48.62
52.91
51.31
44.20
33.00
19.68
6.22
-5.75
-15.21
-21.61
-24.80
-24.87
-22.10
-17.02
-10.32
-2.86
4.42
10.53
14.53
15.66
13.50
7.98
-0.52
-11.25
-23.18
-35.05
-45.60
-53.77
-58.93
-60.92
-60.05
-56.85
-51.80
-45.30
-37.78
-29.88
-22.51
-16.61
-12.79
-10.99
-10.47
-10.14
-9.04
-6.63
-2.85
2.10
8.12
15.23
23.39
32.28
41.16
49.09
55.40
59.98
63.37
66.34
69.35
72.22
74.06
73.77
70.79
65.81
60.95
59.21
63.25
74.06
90.01
107.00
119.63
123.05
114.74
95.49
69.31
42.23
20.40
8.28
7.26
15.39
27.92
38.96
43.28
37.93
23.05
1.60
-21.77
-42.34
-56.79
-63.98
-65.00
-62.36
-58.97
-57.02
-57.47
-60.10
-64.11
-68.91
-74.56
-81.47
-89.67
-98.03
-104.13
-104.87
-97.87
-82.69
-61.44
-38.23
-17.72
-3.59
2.63
1.73
-3.73
-10.09
-13.09
-8.54
6.76
33.41
67.97
102.68
127.37
133.20
116.80
82.34
40.19
2.38
-22.72
-33.69
-35.67
-36.72
-43.28
-57.35
-76.51
-96.37
-113.38
-126.16
-135.10
-140.59
-141.82
-136.62
-122.91
-100.43
-71.60
-41.13
-14.27
5.11
15.92
20.02
21.27
23.94
31.21
44.27
62.13
82.22
101.23
116.13
125.05
127.73
125.29
119.56
111.95
102.70
90.87
75.24
55.49
32.99
10.57
-8.61
-22.56
-31.31
-36.60
-40.71
-45.16
-50.00
-54.20
-56.53
-56.44
-54.34
-51.18
-47.82
-44.59
-41.27
-37.39
-32.63
-27.00
-20.78
-14.33
-7.96
-1.77
4.22
10.02
15.61
20.87
25.59
29.46
32.11
33.26
32.79
30.83
27.77
24.12
20.32
16.60
12.93
9.20
5.41
1.82
-1.12
-3.00
-3.65
-3.19
-1.99
-0.39
1.42
3.37
5.37
7.25
8.72
9.54
9.54
8.71
7.09
4.77
1.99
-0.84
-3.18
-4.47
-4.42
-3.20
-1.33
0.58
2.03
2.88
3.22
3.18
2.82
2.09
1.00
-0.33
-1.60
-2.57
-3.20
-3.65
-4.18
-4.87
-5.53
-5.78
-5.31
-4.10
-2.54
-1.15
-0.37
-0.33
-0.82
-1.47
-2.00
-2.35
-2.59
-2.85
-3.06
-2.97
-2.24
-0.66
1.72
4.53
7.24
9.38
10.75
11.48
11.95
12.56
13.52
14.81
16.18
17.29
17.86
17.71
16.77
15.07
12.70
9.85
6.81
3.98
1.77
0.45
0.13
0.72
1.98
3.59
5.18
6.42
7.09
7.09
6.54
5.65
4.67
3.73
2.83
1.76
0.28
-1.83
-4.57
-7.77
-11.04
-13.92
-15.98
-16.89
-16.50
-14.88
-12.31
-9.17
-5.88
-2.75
0.06
2.50
4.54
6.13
7.22
7.79
7.93
7.86
7.81
7.91
8.18
8.45
8.54
8.35
7.88
7.25
6.60
6.00
5.38
4.60
3.50
1.97
0.05
-2.03
-3.98
-5.53
-6.59
-7.27
-7.89
-8.75
-10.01
-11.50
-12.73
-13.08
-12.06
-9.48
-5.62
-1.04
3.55
7.58
10.70
12.82
14.05
14.51
14.30
13.53
12.26
10.66
8.93
7.21
5.56
3.95
2.30
0.56
-1.23
-2.94
-4.45
-5.64
-6.40
-6.60
-6.16
-5.12
-3.70
-2.29
-1.35
-1.13
-1.63
-2.56
-3.53
-4.28
-4.79
-5.20
-5.69
-6.24
-6.59
-6.33
-5.12
-2.89
0.10
3.36
6.40
8.86
10.62
11.74
12.37
12.64
12.63
12.39
11.97
11.43
10.86
10.27
9.66
8.98
8.20
7.31
6.36
5.44
4.61
3.92
3.31
2.71
1.96
0.94
-0.40
-1.99
-3.66
-5.22
-6.53
-7.53
-8.30
-8.99
-9.80
-10.89
-12.31
-13.88
-15.26
-16.01
-15.72
-14.21
-11.53
-7.96
-3.92
0.20
4.01
7.23
9.64
11.10
11.65
11.41
10.64
9.61
8.51
7.47
6.52
5.72
5.13
4.80
4.73
4.81
4.88
4.68
4.01
2.77
1.03
-1.04
-3.19
-5.28
-7.23
-9.10
-10.83
-12.20
-12.76
-12.01
-9.65
-5.66
-0.31
6.02
12.83
19.38
24.52
26.68
24.28
16.44
3.54
-12.57
-29.08
-43.07
-52.25
-55.31
-51.81
-41.89
-26.19
-6.01
16.51
38.43
56.50
67.90
70.97
65.56
52.99
35.56
16.11
-2.61
-18.21
-29.02
-34.19
-33.74
-28.42
-19.54
-8.72
2.28
11.69
17.97
20.03
17.51
10.93
1.65
-8.48
-17.57
-24.19
-27.68
-28.13
-26.18
-22.66
-18.32
-13.71
-9.23
-5.18
-1.78
0.85
2.77
4.18
5.36
6.55
7.84
9.15
10.28
11.07
11.45
11.48
11.27
10.91
10.46
9.89
9.17
8.23
7.05
5.60
3.88
1.94
-0.07
-1.95
-3.48
-4.51
-5.06
-5.36
-5.77
-6.59
-7.98
-9.78
-11.55
-12.68
-12.64
-11.12
-8.18
-4.20
0.21
4.45
7.99
10.58
12.16
12.86
12.88
12.44
11.70
10.74
9.59
8.25
6.74
5.10
3.46
1.95
0.71
-0.10
-0.36
-0.09
0.60
1.43
2.08
2.26
1.84
0.89
-0.37
-1.66
-2.74
-3.51
-3.98
-4.28
-4.59
-5.10
-5.96
-7.20
-8.65
-9.98
-10.72
-10.48
-9.09
-6.72
-3.83
-0.98
1.43
3.23
4.53
5.55
6.42
7.10
7.43
7.29
6.64
5.60
4.36
3.05
1.75
0.53
-0.47
-1.06
-1.03
-0.33
0.86
2.12
3.02
3.28
2.93
2.28
1.72
1.57
1.92
2.59
3.25
3.53
3.15
1.95
-0.05
-2.64
-5.42
-7.88
-9.53
-10.05
-9.42
-7.95
-6.13
-4.46
-3.32
-2.79
-2.76
-2.96
-3.19
-3.27
-3.13
-2.76
-2.16
-1.33
-0.30
0.91
2.21
3.42
4.33
4.65
4.14
2.74
0.56
-2.03
-4.59
-6.66
-7.93
-8.26
-7.72
-6.50
-4.90
-3.34
-2.32
-2.27
-3.39
-5.50
-8.02
-10.10
-10.92
-10.02
-7.38
-3.43
1.18
5.72
9.63
12.54
14.31
15.02
14.88
14.13
13.02
11.69
10.27
8.81
7.38
6.04
4.82
3.69
2.57
1.42
0.30
-0.66
-1.27
-1.47
-1.35
-1.13
-1.09
-1.37
-2.00
-2.87
-3.84
-4.87
-5.99
-7.25
-8.66
-10.09
-11.28
-11.89
-11.65
-10.44
-8.33
-5.58
-2.57
0.34
2.87
4.88
6.32
7.20
7.55
7.44
6.98
6.31
5.59
4.92
4.32
3.76
3.19
2.60
2.07
1.71
1.61
1.83
2.33
2.95
3.37
3.18
1.97
-0.44
-3.98
-8.18
-12.31
-15.63
-17.58
-17.94
-16.94
-15.11
-13.16
-11.81
-11.51
-12.32
-13.72
-14.91
-15.00
-13.53
-10.70
-7.29
-4.31
-2.42
-1.56
-0.95
0.37
2.83
5.78
7.75
7.29
3.85
-1.70
-7.55
-11.86
-13.49
-12.08
-7.36
1.42
15.20
33.86
54.83
72.85
81.56
76.38
57.03
28.23
-2.14
-26.13
-38.73
-38.93
-29.00
-12.70
6.29
25.09
41.37
53.01
58.27
56.49
48.80
38.08
27.91
21.07
18.16
17.32
15.10
8.30
-4.23
-20.81
-37.34
-48.95
-51.88
-44.92
-29.76
-10.33
8.59
22.84
29.95
29.58
23.31
14.06
5.19
-0.09
0.87
9.75
26.96
51.23
79.46
106.95
128.39
139.26
137.37
123.70
102.07
77.84
56.18
40.73
33.08
32.91
38.40
46.50
53.10
53.36
42.68
18.15
-19.94
-67.55
-117.54
-161.71
-193.25
-208.72
-208.51
-196.13
-176.53
-154.47
-133.41
-115.04
-99.53
-86.16
-74.10
-62.91
-52.77
-44.21
-37.59
-32.82
-29.27
-26.14
-22.91
-19.49
-15.93
-11.81
-6.02
2.84
15.42
30.65
45.82
57.84
64.95
67.83
69.25
72.32
78.44
86.03
91.32
90.54
82.37
69.09
55.74
47.70
48.27
57.42
72.48
89.98
107.43
123.98
139.64
153.91
164.85
169.31
164.21
148.03
121.42
86.70
46.55
3.00
-42.83
-90.07
-137.21
-181.58
-219.46
-246.99
-261.13
-260.48
-245.61
-219.14
-185.40
-149.71
-117.22
-91.76
-75.01
-66.39
-63.67
-63.85
-64.11
-62.39
-57.81
-50.79
-42.93
-36.47
-33.17
-33.05
-33.80
-31.33
-21.57
-2.79
22.84
49.57
70.37
80.03
77.45
65.91
51.33
39.57
34.16
35.44
41.28
48.59
54.89
58.98
61.05
62.08
63.59
67.47
75.89
90.75
112.72
139.96
167.69
189.07
197.37
188.67
163.50
126.65
85.02
44.57
8.10
-25.07
-57.26
-89.95
-122.02
-149.78
-168.62
-175.31
-169.55
-154.20
-134.18
-114.68
-99.59
-90.63
-87.41
-88.07
-90.28
-92.10
-92.36
-90.68
-87.11
-81.95
-75.58
-68.56
-61.55
-55.11
-49.26
-43.19
-35.40
-24.41
-9.79
7.25
24.11
37.97
47.22
52.32
55.63
59.97
67.01
76.26
85.37
91.58
93.29
90.98
86.99
84.37
85.70
92.56
105.64
125.15
150.78
180.99
212.30
239.16
255.22
255.28
237.17
202.51
155.73
102.07
45.69
-11.00
-66.74
-120.02
-168.15
-207.39
-234.18
-246.56
-244.99
-231.97
-211.06
-185.86
-159.56
-134.92
-114.29
-99.45
-91.03
-88.23
-88.91
-90.41
-90.47
-87.99
-83.03
-76.50
-69.56
-63.19
-57.97
-53.92
-50.44
-46.23
-39.66
-29.22
-14.27
4.56
25.28
45.01
60.81
70.40
72.72
67.99
57.51
43.31
28.00
14.77
7.15
8.73
22.27
48.77
86.80
132.52
180.65
225.61
262.71
288.55
300.96
298.67
281.33
250.03
207.70
159.03
109.37
63.11
22.15
-14.31
-48.62
-82.76
-116.68
-148.10
-173.56
-190.40
-198.16
-198.65
-194.87
-189.47
-183.63
-177.05
-168.82
-158.44
-146.34
-133.70
-121.78
-111.32
-102.31
-94.25
-86.64
-79.45
-73.11
-68.14
-64.53
-61.27
-56.36
-47.50
-32.96
-12.47
12.57
39.36
64.64
85.64
100.69
109.32
111.82
108.89
101.63
91.94
82.91
78.61
83.17
99.14
126.21
160.96
197.88
231.45
257.81
275.40
284.28
284.74
276.33
257.92
228.55
188.44
139.27
83.99
26.30
-29.81
-80.41
-122.15
-153.17
-173.85
-186.87
-196.28
-205.79
-217.20
-229.83
-241.17
-248.31
-249.22
-243.27
-230.95
-213.30
-191.56
-167.15
-141.84
-117.49
-95.69
-77.27
-62.28
-50.19
-40.26
-31.67
-23.57
-15.13
-5.80
4.24
13.83
21.00
23.82
21.45
14.73
5.98
-2.04
-7.54
-10.68
-13.48
-18.71
-28.31
-42.11
-57.59
-70.77
-77.85
-76.83
-68.31
-55.19
-41.54
-31.11
-26.19
-27.24
-33.13
-41.74
-50.69
-57.92
-61.98
-62.17
-58.44
-51.08
-40.33
-26.01
-7.27
17.25
49.02
88.95
136.92
191.26
248.59
303.88
350.87
383.13
395.37
385.03
353.24
304.94
247.67
189.54
136.95
93.06
57.66
28.17
1.46
-24.65
-50.68
-75.85
-98.89
-118.88
-135.61
-149.23
-159.78
-166.79
-169.51
-167.37
-160.63
-150.46
-138.63
-126.98
-116.73
-108.31
-101.54
-95.95
-91.21
-87.19
-83.80
-80.79
-77.65
-73.79
-69.00
-63.70
-58.93
-55.89
-55.14
-56.11
-56.96
-55.26
-48.93
-37.32
-21.53
-4.05
12.31
25.55
35.19
42.05
47.39
52.14
56.48
60.47
65.02
72.31
85.24
105.85
133.68
165.01
193.71
212.98
217.45
204.36
173.95
129.18
75.18
18.66
-33.06
-73.49
-98.60
-107.99
-104.73
-93.94
-80.63
-67.94
-56.58
-45.65
-33.93
-21.07
-8.04
3.24
10.61
12.60
8.89
0.40
-11.15
-24.04
-37.26
-50.50
-63.47
-74.91
-82.08
-81.42
-70.12
-47.99
-18.44
12.20
36.87
50.51
52.07
44.64
33.83
25.15
21.90
24.69
32.49
44.21
59.44
77.71
96.91
112.46
118.30
109.70
86.35
53.61
20.69
-3.40
-14.11
-13.09
-6.79
-2.53
-4.64
-12.75
-22.73
-29.63
-30.39
-25.01
-15.91
-6.11
2.47
9.66
16.34
23.15
29.43
33.21
32.18
25.06
12.55
-2.76
-17.45
-28.68
-35.22
-37.63
-37.47
-36.32
-34.89
-32.70
-28.31
-19.82
-5.35
16.48
45.90
81.37
119.10
153.28
177.10
184.66
172.93
142.99
99.75
50.36
1.80
-40.99
-75.67
-101.68
-118.86
-126.67
-124.44
-112.61
-93.77
-72.75
-55.30
-46.19
-47.32
-57.18
-71.52
-85.16
-93.82
-95.48
-90.66
-81.89
-72.54
-65.46
-61.97
-61.51
-62.09
-61.28
-57.45
-50.35
-41.03
-31.08
-21.93
-14.41
-8.81
-5.02
-2.58
-0.24
4.39
14.79
34.82
67.32
112.57
167.27
224.61
275.74
311.89
326.79
318.17
287.94
240.89
182.74
118.58
52.25
-13.00
-73.54
-124.90
-162.34
-182.34
-183.96
-169.50
-143.83
-112.92
-82.05
-54.72
-32.31
-14.48
-0.07
12.11
23.05
33.80
46.07
62.34
85.21
115.93
152.85
190.79
222.12
239.20
237.11
215.14
176.40
125.98
68.83
8.61
-52.04
-110.44
-163.11
-205.98
-235.48
-249.95
-250.36
-240.06
-223.78
-206.16
-190.55
-178.59
-170.22
-164.22
-158.91
-152.70
-144.56
-134.22
-122.21
-109.76
-98.40
-89.35
-82.92
-78.27
-73.41
-65.75
-52.65
-31.83
-1.65
38.51
87.77
143.11
199.33
249.65
287.20
306.81
306.12
285.65
248.02
196.92
136.67
72.30
9.70
-44.82
-85.87
-110.52
-119.20
-115.35
-103.99
-90.01
-76.95
-66.57
-59.15
-53.93
-49.58
-44.51
-36.86
-24.68
-6.16
19.73
52.65
90.53
129.61
165.19
192.76
208.97
212.10
201.88
178.93
144.38
99.96
48.47
-5.91
-58.02
-102.82
-136.74
-158.54
-169.21
-171.05
-166.49
-157.38
-144.87
-129.84
-113.47
-97.53
-84.14
-75.08
-71.04
-71.21
-73.49
-75.26
-74.19
-68.87
-58.87
-44.44
-26.06
-4.19
20.57
47.29
74.36
99.69
121.01
136.31
144.07
143.32
133.50
114.51
87.02
52.92
15.59
-20.38
-50.02
-69.28
-76.14
-71.20
-57.21
-37.93
-16.91
3.32
21.18
35.70
46.21
52.39
54.82
55.24
56.36
60.75
69.49
81.15
92.01
97.61
94.83
83.63
67.31
51.12
39.87
35.64
36.75
38.44
35.01
22.30
-0.41
-30.26
-62.02
-90.27
-111.36
-124.36
-130.64
-132.67
-132.69
-131.86
-130.24
-127.34
-122.83
-116.98
-110.54
-104.30
-98.63
-93.28
-87.45
-80.32
-71.55
-61.64
-51.83
-43.58
-37.78
-34.19
-31.35
-27.10
-19.34
-6.66
11.53
35.18
63.84
96.40
130.43
161.65
184.20
192.12
181.61
153.11
111.87
66.78
27.60
1.91
-6.97
-0.31
17.30
40.03
62.80
82.22
96.66
105.76
109.74
108.98
103.95
95.04
82.58
66.78
47.98
26.94
5.16
-15.07
-31.18
-41.14
-44.25
-41.63
-35.96
-30.79
-29.47
-34.30
-45.94
-63.31
-83.93
-104.58
-122.15
-134.41
-140.55
-141.15
-137.76
-132.07
-125.41
-118.49
-111.43
-104.04
-95.97
-86.95
-76.81
-65.61
-53.63
-41.37
-29.45
-18.42
-8.68
-0.42
6.36
11.82
16.36
20.90
27.02
36.86
52.54
75.15
103.74
134.83
162.94
182.06
187.45
177.18
152.66
118.09
79.12
41.38
9.31
-14.24
-27.92
-31.64
-26.47
-14.66
0.38
14.62
24.36
27.36
23.79
16.34
9.58
8.61
17.50
37.96
68.65
105.28
141.34
169.53
183.43
179.29
157.35
122.03
80.68
41.18
9.19
-13.81
-30.73
-47.10
-68.16
-96.21
-129.49
-163.02
-190.93
-209.00
-216.03
-213.74
-205.34
-193.85
-180.99
-167.27
-152.77
-137.99
-124.15
-112.74
-104.69
-99.69
-96.16
-91.70
-84.13
-72.09
-55.39
-34.77
-11.55
12.60
35.72
55.60
70.10
77.77
78.64
74.70
69.87
69.28
77.92
99.06
132.72
174.91
218.05
252.53
269.18
261.90
229.54
176.48
111.53
45.70
-10.63
-50.15
-70.20
-72.93
-64.14
-51.07
-40.07
-34.87
-36.04
-41.52
-47.80
-51.04
-48.04
-36.84
-17.31
8.29
35.56
58.88
73.20
75.79
67.20
50.82
31.31
12.87
-1.92
-12.23
-18.33
-20.81
-20.19
-16.94
-11.87
-6.39
-2.47
-2.24
-7.33
-18.25
-34.08
-52.71
-71.72
-89.27
-104.71
-118.50
-131.31
-143.04
-152.40
-157.34
-156.32
-149.50
-139.19
-129.01
-122.51
-121.60
-125.80
-132.47
-137.85
-138.24
-131.09
-115.51
-92.40
-64.12
-33.76
-4.26
22.38
45.68
66.59
86.82
108.05
131.08
155.62
180.48
203.86
223.72
237.98
244.64
242.24
230.40
210.28
184.44
156.23
128.56
102.93
79.23
56.23
32.53
7.40
-18.90
-45.39
-70.73
-93.58
-112.69
-127.07
-136.21
-140.33
-140.41
-137.97
-134.51
-130.99
-127.64
-124.25
-120.51
-116.36
-111.86
-107.03
-101.60
-95.09
-86.91
-76.75
-64.60
-50.77
-35.75
-20.15
-4.73
9.57
21.64
30.52
35.74
37.73
37.96
38.67
42.18
50.07
62.54
78.30
94.93
109.65
119.98
124.26
121.77
112.68
97.94
79.07
58.10
37.33
19.01
4.91
-3.98
-7.65
-7.02
-3.59
1.00
5.53
9.37
12.51
15.10
17.12
18.16
17.53
14.74
9.94
4.15
-0.92
-3.34
-1.59
4.84
15.19
27.47
38.82
46.11
46.62
38.78
22.65
0.09
-25.62
-50.52
-71.00
-84.58
-90.47
-89.39
-83.16
-73.82
-63.07
-51.74
-39.63
-25.73
-8.77
11.77
34.69
56.74
73.39
80.73
77.62
66.72
53.66
44.47
42.54
46.85
52.60
53.73
46.04
29.06
5.82
-19.01
-41.33
-58.84
-70.91
-77.66
-79.27
-75.90
-68.19
-57.81
-47.19
-38.76
-33.90
-32.31
-32.18
-31.12
-27.19
-19.53
-8.48
4.92
19.30
33.35
45.83
55.65
62.02
64.76
64.54
62.84
61.47
61.80
64.05
66.94
68.08
65.02
56.46
43.02
27.10
11.80
-0.51
-9.12
-14.95
-19.60
-24.19
-28.67
-32.15
-33.78
-33.68
-33.02
-33.31
-35.40
-38.89
-42.32
-43.99
-42.92
-39.21
-33.80
-28.00
-22.87
-18.98
-16.38
-14.79
-13.73
-12.70
-11.27
-9.27
-6.81
-4.23
-1.89
-0.02
1.38
2.41
3.18
3.69
3.89
3.86
3.85
4.32
5.78
8.54
12.49
17.07
21.40
24.56
25.90
25.32
23.24
20.43
17.63
15.22
13.07
10.68
7.48
3.19
-1.98
-7.41
-12.28
-15.94
-18.14
-19.07
-19.20
-19.03
-18.81
-18.49
-17.75
-16.33
-14.20
-11.71
-9.43
-7.93
-7.42
-7.61
-7.87
-7.55
-6.31
-4.34
-2.19
-0.54
0.23
0.16
-0.40
-1.08
-1.73
-2.43
-3.30
-4.23
-4.72
-4.03
-1.51
3.03
9.09
15.65
21.53
25.83
28.21
28.88
28.40
27.47
26.75
26.91
28.62
32.43
38.55
46.50
54.99
62.09
65.69
64.21
57.22
45.62
31.42
17.05
4.55
-5.06
-11.87
-16.78
-20.77
-24.46
-27.86
-30.66
-32.65
-33.93
-34.82
-35.49
-35.66
-34.61
-31.66
-26.58
-19.86
-12.48
-5.50
0.33
4.66
7.36
8.38
7.67
5.36
1.89
-1.94
-5.26
-7.42
-8.20
-7.87
-6.92
-5.80
-4.75
-3.78
-2.79
-1.77
-0.90
-0.48
-0.80
-1.90
-3.44
-4.86
-5.60
-5.39
-4.39
-3.00
-1.58
-0.18
1.48
3.82
7.12
11.33
16.07
20.72
24.64
27.14
27.66
25.83
21.70
15.81
9.13
2.81
-2.16
-5.18
-6.13
-5.33
-3.49
-1.60
-0.87
-2.41
-6.92
-14.32
-23.63
-33.15
-41.05
-45.90
-46.97
-44.17
-37.67
-27.55
-13.76
3.54
23.42
43.84
61.88
74.49
79.48
76.38
66.47
52.22
36.23
20.40
5.52
-8.37
-21.39
-33.32
-43.40
-50.69
-54.54
-54.98
-52.84
-49.41
-45.81
-42.54
-39.09
-34.16
-26.12
-13.76
3.18
23.91
46.87
70.05
91.33
108.40
118.80
120.11
110.69
90.50
61.60
27.80
-6.36
-37.03
-61.95
-80.54
-93.15
-100.12
-101.26
-96.22
-85.24
-69.87
-52.92
-37.70
-26.77
-21.00
-19.36
-19.70
-19.89
-18.88
-16.99
-15.44
-15.37
-17.06
-19.73
-21.97
-22.55
-20.96
-17.49
-12.82
-7.47
-1.46
5.66
14.33
24.40
34.76
43.57
48.83
49.25
44.88
37.15
28.33
20.52
14.77
10.87
7.72
4.25
0.15
-3.87
-6.45
-6.36
-3.24
2.29
8.84
14.96
19.58
22.32
23.30
22.83
21.14
18.28
14.24
9.21
3.62
-1.90
-6.73
-10.42
-12.81
-13.99
-14.21
-13.82
-13.25
-13.00
-13.52
-15.08
-17.47
-20.02
-21.65
-21.34
-18.63
-13.85
-8.07
-2.64
1.33
3.40
3.81
3.21
2.25
1.34
0.66
0.39
0.86
2.46
5.29
8.91
12.27
14.13
13.72
11.17
7.51
4.21
2.37
2.19
2.90
3.25
2.23
-0.41
-4.07
-7.70
-10.25
-11.09
-10.04
-7.23
-2.96
2.36
8.21
13.85
18.39
21.07
21.47
19.70
16.45
12.72
9.58
7.78
7.65
9.05
11.48
14.28
16.76
18.29
18.43
16.89
13.64
9.00
3.70
-1.24
-4.80
-6.24
-5.43
-2.91
0.34
3.17
4.69
4.43
2.45
-0.83
-4.74
-8.64
-11.96
-14.30
-15.46
-15.40
-14.29
-12.40
-10.07
-7.59
-5.14
-2.83
-0.70
1.12
2.39
2.93
2.70
1.90
0.93
0.15
-0.23
-0.16
0.38
1.47
3.17
5.38
7.62
9.03
8.73
6.21
1.73
-3.77
-9.02
-12.98
-15.22
-15.97
-15.76
-15.06
-13.97
-12.26
-9.60
-5.86
-1.35
3.26
7.14
9.68
10.72
10.58
9.83
8.93
8.06
7.05
5.63
3.67
1.37
-0.71
-1.96
-1.85
-0.20
2.82
6.64
10.36
12.80
12.83
9.77
3.80
-3.87
-11.32
-16.64
-18.70
-17.58
-14.46
-10.91
-8.12
-6.39
-5.23
-3.82
-1.74
0.81
3.14
4.51
4.59
3.67
2.38
1.40
1.01
1.03
0.94
0.27
-1.14
-3.04
-4.87
-6.02
-6.13
-5.20
-3.61
-1.96
-0.90
-0.82
-1.79
-3.50
-5.35
-6.67
-7.00
-6.14
-4.24
-1.62
1.33
4.23
6.73
8.47
9.19
8.80
7.52
5.85
4.33
3.32
2.84
2.64
2.42
2.02
1.52
1.11
0.92
0.87
0.75
0.30
-0.57
-1.76
-3.00
-3.99
-4.55
-4.69
-4.66
-4.81
-5.40
-6.43
-7.62
-8.44
-8.46
-7.51
-5.75
-3.58
-1.36
0.73
2.74
4.78
6.87
8.79
10.24
10.93
10.77
9.93
8.67
7.27
5.91
4.67
3.59
2.71
2.11
1.85
1.93
2.19
2.38
2.25
1.57
0.28
-1.49
-3.50
-5.43
-6.98
-7.97
-8.34
-8.14
-7.45
-6.34
-4.89
-3.19
-1.36
0.50
2.36
4.30
6.42
8.72
10.96
12.70
13.41
12.82
11.09
8.83
6.82
5.66
5.55
6.27
7.38
8.48
9.36
10.00
10.48
10.82
10.95
10.68
9.68
7.56
4.10
-0.45
-5.13
-8.26
-7.87
-2.44
8.28
22.77
37.80
49.28
53.59
48.94
36.20
18.76
1.48
-10.89
-15.31
-11.27
-0.81
12.39
24.24
31.37
31.82
25.30
12.94
-3.11
-20.23
-35.95
-48.48
-56.90
-61.01
-61.14
-57.95
-52.51
-46.26
-40.79
-37.29
-36.11
-36.46
-36.88
-36.05
-33.34
-29.04
-23.85
-18.23
-12.05
-4.85
3.55
12.53
20.83
27.30
31.90
36.16
42.71
53.98
70.74
91.23
111.45
126.39
131.84
125.97
109.84
86.91
61.62
37.93
18.41
4.37
-3.49
-4.62
1.18
12.83
27.04
38.34
40.47
28.81
2.60
-34.16
-73.92
-108.26
-130.88
-139.50
-135.93
-124.47
-109.84
-95.43
-82.71
-71.59
-61.44
-51.95
-43.57
-37.20
-33.68
-33.28
-35.60
-39.64
-44.11
-47.48
-47.94
-43.63
-33.03
-15.74
7.00
32.21
55.91
74.41
85.53
89.05
86.33
79.24
69.10
56.29
40.66
22.44
3.11
-14.34
-25.74
-26.82
-14.47
12.03
50.22
94.55
137.45
171.05
189.19
189.13
172.32
144.05
111.74
82.56
60.93
47.10
37.24
25.35
6.07
-22.59
-58.17
-94.53
-124.48
-142.64
-147.34
-140.62
-126.60
-109.43
-91.97
-75.74
-61.75
-51.30
-46.09
-47.41
-55.11
-67.06
-79.66
-89.27
-93.74
-93.25
-89.85
-86.03
-83.04
-80.04
-74.56
-63.96
-47.18
-25.66
-3.00
16.49
29.46
34.60
32.70
26.18
18.23
12.35
12.21
21.33
42.24
75.01
116.10
158.10
191.52
207.85
202.79
178.00
140.29
98.67
60.93
31.32
10.64
-2.10
-7.66
-5.99
2.69
16.07
28.80
33.74
24.92
0.70
-34.76
-72.81
-103.69
-120.48
-121.46
-110.16
-93.13
-76.95
-65.83
-60.75
-60.16
-61.55
-62.88
-63.35
-63.28
-63.38
-64.09
-65.29
-66.40
-66.77
-65.90
-63.46
-59.08
-52.18
-42.10
-28.67
-12.76
3.42
16.91
25.17
27.32
24.72
20.43
17.83
19.00
23.75
30.13
36.08
41.42
48.71
62.39
86.43
121.67
164.40
207.03
240.60
257.58
254.16
230.71
191.32
142.57
92.32
48.34
16.66
-0.34
-5.23
-5.11
-9.21
-25.01
-54.99
-95.49
-138.34
-174.42
-197.26
-204.95
-199.67
-185.75
-167.33
-147.20
-126.90
-107.56
-90.61
-77.85
-70.52
-68.32
-69.04
-69.42
-66.63
-59.70
-49.80
-39.24
-29.77
-21.25
-11.53
2.30
22.15
47.77
76.95
106.69
134.52
158.92
178.73
192.09
195.98
186.97
162.95
124.87
77.43
28.25
-14.05
-42.01
-50.88
-39.20
-8.63
36.35
88.83
140.14
181.03
203.49
202.65
178.23
134.79
80.55
24.99
-23.99
-62.26
-90.14
-111.25
-130.07
-149.43
-169.10
-186.14
-196.88
-199.09
-193.29
-182.28
-169.51
-157.20
-145.75
-134.39
-122.66
-111.37
-102.44
-97.75
-97.82
-101.17
-104.92
-106.16
-103.25
-96.46
-87.53
-78.60
-70.92
-64.16
-56.38
-44.85
-27.24
-2.67
27.68
60.75
92.28
117.77
133.49
137.30
129.31
112.23
91.13
72.66
63.40
68.04
87.84
119.97
158.28
194.99
222.80
236.72
235.03
219.15
192.76
160.48
126.49
93.67
63.22
35.08
8.78
-15.73
-37.70
-55.89
-69.38
-78.43
-84.80
-91.10
-99.68
-111.49
-125.60
-139.86
-152.03
-160.90
-166.58
-169.91
-171.38
-170.36
-165.31
-154.68
-138.18
-117.35
-95.19
-75.06
-59.37
-48.88
-42.75
-39.16
-36.13
-32.11
-26.23
-18.36
-9.17
0.01
7.49
11.62
11.48
7.33
0.56
-6.69
-12.27
-14.65
-13.16
-7.81
1.03
12.71
26.29
40.25
52.56
61.09
64.29
61.78
54.59
44.79
34.86
26.83
21.77
19.64
19.54
20.20
20.56
20.17
19.34
18.93
19.89
22.69
27.06
32.10
36.90
41.10
45.27
50.69
58.59
69.52
82.92
97.25
110.39
120.02
123.80
119.59
105.84
82.28
50.66
14.98
-19.21
-46.40
-62.84
-67.74
-63.22
-53.12
-41.44
-31.05
-23.44
-19.02
-17.83
-19.88
-24.95
-32.27
-40.32
-47.15
-51.12
-51.62
-49.46
-46.44
-44.51
-44.85
-47.33
-50.74
-53.51
-54.65
-54.35
-53.75
-54.26
-56.54
-59.91
-62.46
-61.92
-56.86
-47.52
-35.74
-24.26
-15.17
-9.03
-4.49
1.09
10.66
26.61
50.05
80.51
115.73
151.59
182.31
201.40
203.51
186.49
152.71
108.67
62.78
22.38
-8.61
-30.26
-45.25
-56.54
-65.67
-72.34
-75.42
-74.47
-70.53
-65.87
-62.74
-62.04
-62.44
-61.11
-54.73
-41.25
-20.98
3.21
26.74
44.98
54.96
56.35
51.34
43.59
36.72
33.11
33.51
37.43
43.86
51.83
60.52
68.98
75.98
79.99
79.63
74.16
63.78
49.61
33.30
16.49
0.41
-14.29
-27.48
-39.23
-49.56
-58.24
-64.82
-68.78
-69.87
-68.29
-64.71
-60.15
-55.51
-51.37
-47.76
-44.32
-40.62
-36.50
-32.24
-28.47
-25.88
-24.79
-24.89
-25.18
-24.14
-20.30
-12.69
-1.32
12.82
28.00
42.29
53.97
61.96
65.86
66.06
63.64
60.27
57.85
58.05
61.65
68.09
75.43
80.86
81.53
75.43
61.92
41.80
17.08
-9.54
-35.11
-56.87
-72.61
-80.91
-81.39
-74.75
-62.72
-47.73
-32.51
-19.39
-9.74
-3.49
0.93
5.98
14.04
26.33
42.21
59.12
73.37
81.37
80.81
71.53
55.65
37.10
20.49
9.78
6.96
11.29
19.37
26.23
27.03
18.73
1.05
-23.65
-51.31
-77.53
-98.66
-112.26
-117.22
-113.63
-102.55
-85.93
-66.33
-46.43
-28.52
-14.11
-3.83
2.39
5.06
4.87
2.65
-0.48
-3.15
-3.95
-1.81
3.75
12.57
24.18
38.17
54.40
72.90
93.44
115.09
135.94
153.26
164.06
165.86
157.50
139.53
113.96
83.52
50.72
17.21
-16.23
-49.12
-80.46
-108.23
-129.56
-141.67
-142.98
-133.91
-116.90
-95.65
-73.90
-54.43
-38.50
-25.86
-15.16
-4.56
7.98
24.26
45.48
71.57
100.56
128.45
150.04
160.61
157.91
143.24
120.75
95.33
70.09
45.02
17.78
-13.99
-50.26
-87.77
-121.25
-145.97
-160.01
-164.72
-163.48
-159.48
-154.24
-147.43
-137.97
-125.48
-111.07
-96.97
-85.48
-77.90
-74.00
-72.31
-70.90
-68.24
-63.73
-57.75
-51.30
-45.40
-40.53
-36.29
-31.48
-24.41
-13.44
2.55
23.87
49.82
78.66
107.74
133.77
153.37
163.56
162.37
149.33
125.75
94.76
60.97
29.70
5.81
-7.40
-9.15
-1.43
11.59
24.85
33.93
36.40
32.45
24.53
16.40
11.63
12.34
18.56
28.33
38.52
46.09
49.03
46.80
40.20
31.03
21.59
14.29
10.96
12.14
16.45
20.52
20.02
11.34
-6.72
-32.21
-60.64
-86.74
-106.36
-117.66
-121.10
-118.49
-111.92
-103.00
-92.78
-82.01
-71.48
-62.05
-54.47
-49.12
-45.82
-43.74
-41.52
-37.66
-31.03
-21.47
-9.99
1.55
11.26
18.11
22.50
26.02
30.79
38.61
50.40
66.07
84.64
104.28
122.24
134.97
138.63
130.27
109.07
77.22
39.73
3.18
-26.22
-44.45
-50.65
-47.01
-37.68
-27.16
-18.86
-14.17
-12.35
-11.18
-8.09
-1.24
9.92
24.63
41.24
57.70
71.86
81.63
85.16
81.46
71.00
56.17
40.84
29.06
23.29
23.02
24.78
23.45
14.60
-3.52
-29.21
-58.02
-84.56
-104.56
-116.07
-119.52
-116.92
-110.52
-102.01
-92.24
-81.68
-70.91
-60.99
-53.24
-48.59
-46.97
-47.12
-47.04
-44.91
-39.98
-32.87
-25.20
-18.60
-13.78
-10.14
-5.86
1.33
13.37
31.15
54.05
79.89
105.05
125.01
135.33
132.85
116.96
90.21
58.05
27.38
4.46
-6.98
-6.75
2.21
15.50
29.14
41.10
51.55
61.95
73.69
86.86
99.93
110.23
115.00
112.37
101.95
84.93
63.55
40.46
17.94
-2.66
-21.18
-38.48
-55.88
-74.36
-93.96
-113.50
-130.88
-143.76
-150.42
-150.35
-144.28
-133.73
-120.32
-105.22
-89.08
-72.30
-55.53
-39.93
-26.96
-17.88
-13.13
-12.09
-13.35
-15.31
-16.67
-16.81
-15.52
-12.85
-8.87
-3.92
1.23
5.37
7.31
6.55
3.82
0.80
-0.65
0.49
3.83
7.74
10.35
10.58
8.70
6.02
3.93
3.08
2.99
2.53
0.70
-2.71
-7.01
-11.12
-14.18
-16.06
-17.45
-19.48
-23.15
-28.88
-36.34
-44.50
-52.03
-57.69
-60.68
-60.79
-58.03
-52.16
-42.47
-28.04
-8.68
14.36
38.21
59.19
74.14
81.68
82.45
78.48
71.96
64.36
56.31
48.13
40.33
33.68
28.72
25.16
21.88
17.66
12.00
5.72
0.66
-1.25
1.11
7.57
16.71
26.54
35.35
42.24
47.31
51.33
55.22
59.60
64.53
69.63
74.23
77.73
79.68
79.85
78.20
74.76
69.69
63.36
56.56
50.44
46.63
46.92
53.10
66.57
87.82
116.03
148.91
182.95
214.18
239.15
255.57
262.79
261.56
253.67
241.37
226.97
212.47
199.24
187.94
178.43
170.14
162.45
154.98
147.72
140.59
133.00
123.60
110.46
91.53
65.40
31.77
-8.19
-51.61
-94.03
-129.92
-154.08
-163.40
-158.62
-144.74
-129.87
-122.34
-127.78
-147.23
-177.50
-213.48
-250.93
-288.35
-326.75
-368.01
-412.77
-459.36
-504.03
-542.14
-569.58
-583.66
-583.36
-569.17
-542.89
-507.29
-465.79
-421.96
-378.73
-337.88
-299.68
-263.14
-226.49
-187.80
-145.63
-99.32
-49.26
3.33
56.70
109.28
160.26
210.23
261.32
316.65
378.70
447.24
517.85
582.02
629.48
651.78
645.75
614.82
567.52
513.88
461.55
413.68
369.27
325.46
280.06
232.95
185.59
139.60
95.29
51.16
4.59
-46.98
-105.18
-170.44
-242.38
-319.93
-401.00
-481.78
-556.54
-618.38
-661.08
-681.15
-678.97
-658.36
-624.86
-583.59
-537.96
-489.81
-439.94
-389.09
-337.80
-285.75
-231.25
-171.24
-102.00
-20.34
75.17
183.16
298.65
413.26
516.58
598.66
652.87
677.81
677.36
658.59
628.72
592.71
552.47
507.95
458.84
406.07
351.95
299.41
250.83
207.35
168.92
134.82
104.40
77.52
54.90
37.58
26.23
20.35
17.91
15.80
10.96
1.67
-11.76
-27.31
-42.23
-54.34
-62.67
-67.40
-69.35
-69.35
-67.82
-64.68
-59.32
-50.74
-38.01
-20.95
-0.92
19.01
34.93
43.79
44.99
40.95
36.14
35.02
40.13
51.07
65.15
78.76
88.84
93.55
92.10
84.33
70.42
51.21
28.55
5.47
-14.55
-28.62
-35.68
-36.96
-35.58
-35.25
-38.81
-47.17
-59.26
-72.87
-85.81
-96.82
-105.78
-113.20
-119.57
-124.88
-128.73
-130.68
-130.72
-129.29
-127.11
-124.61
-121.70
-117.73
-111.78
-103.30
-92.47
-80.33
-68.52
-58.68
-51.84
-47.93
-45.83
-43.84
-40.33
-34.43
-26.29
-16.93
-7.73
0.09
5.78
9.08
10.03
8.66
4.92
-1.47
-11.01
-24.30
-41.78
-63.35
-87.83
-112.63
-134.01
-147.98
-151.63
-144.24
-127.61
-105.49
-82.25
-61.41
-44.80
-32.58
-23.82
-17.44
-12.80
-9.72
-8.20
-8.07
-8.76
-9.63
-10.22
-10.67
-11.58
-13.73
-17.51
-22.59
-27.85
-31.77
-33.11
-31.39
-27.12
-21.59
-16.32
-12.53
-10.68
-10.49
-11.15
-11.80
-11.91
-11.49
-11.00
-11.08
-12.20
-14.37
-17.08
-19.48
-20.62
-19.83
-16.91
-12.16
-6.30
-0.20
5.32
9.76
12.92
14.90
15.94
16.32
16.22
15.79
15.17
14.54
14.14
14.12
14.44
14.79
14.64
13.45
10.80
6.61
1.12
-5.21
-11.88
-18.49
-24.81
-30.73
-36.23
-41.27
-45.82
-49.86
-53.40
-56.50
-59.13
-61.15
-62.26
-62.03
-60.04
-56.11
-50.37
-43.29
-35.56
-27.82
-20.50
-13.71
-7.33
-1.18
4.80
10.53
15.72
20.06
23.27
25.23
25.93
25.46
23.94
21.53
18.40
14.76
10.81
6.76
2.74
-1.22
-5.22
-9.39
-13.84
-18.57
-23.39
-28.10
-32.49
-36.53
-40.37
-44.28
-48.47
-52.93
-57.32
-60.97
-62.92
-62.20
-58.09
-50.36
-39.45
-26.44
-12.84
-0.23
10.08
17.34
21.38
22.52
21.39
18.75
15.24
11.25
6.85
1.70
-4.67
-12.69
-22.27
-32.58
-41.91
-47.86
-47.80
-39.66
-22.79
1.46
29.59
56.68
77.66
88.91
89.44
81.13
67.98
54.66
45.02
41.20
43.49
50.63
60.39
70.01
76.63
77.80
72.14
59.85
42.75
23.82
6.17
-7.97
-17.80
-23.92
-27.63
-30.16
-32.24
-33.97
-35.10
-35.43
-34.95
-33.84
-32.31
-30.35
-27.71
-23.94
-18.65
-11.78
-3.79
4.46
11.94
17.85
21.95
24.62
26.64
28.79
31.49
34.59
37.55
39.68
40.61
40.32
39.20
37.74
36.29
34.96
33.66
32.27
30.82
29.51
28.62
28.34
28.65
29.26
29.74
29.71
28.94
27.45
25.42
23.10
20.71
18.36
16.03
13.62
11.05
8.32
5.57
3.10
1.23
0.27
0.40
1.60
3.68
6.29
9.07
11.69
13.94
15.72
17.05
17.93
18.38
18.40
17.98
17.18
16.09
14.82
13.42
11.87
10.06
7.90
5.30
2.27
-1.16
-4.95
-9.01
-13.23
-17.39
-21.25
-24.63
-27.47
-29.91
-32.18
-34.47
-36.72
-38.54
-39.27
-38.12
-34.46
-28.09
-19.32
-8.97
1.81
11.79
19.87
25.24
27.39
26.20
21.95
15.31
7.29
-0.98
-8.47
-14.52
-18.92
-21.82
-23.53
-24.27
-24.11
-22.92
-20.46
-16.56
-11.24
-4.85
1.92
8.05
12.42
14.14
12.85
8.91
3.25
-2.96
-8.72
-13.47
-17.02
-19.44
-20.81
-21.13
-20.38
-18.72
-16.48
-14.07
-11.88
-10.06
-8.54
-7.09
-5.51
-3.81
-2.13
-0.70
0.29
0.82
0.99
1.04
1.18
1.54
2.10
2.70
3.18
3.37
3.22
2.75
2.03
1.05
-0.22
-1.86
-3.88
-6.14
-8.32
-10.00
-10.67
-9.94
-7.60
-3.68
1.53
7.54
13.81
19.84
25.25
29.79
33.29
35.61
36.69
36.49
35.11
32.71
29.51
25.72
21.51
17.07
12.57
8.17
4.05
0.28
-3.09
-6.07
-8.66
-10.84
-12.59
-13.95
-15.08
-16.24
-17.68
-19.52
-21.74
-24.06
-26.09
-27.42
-27.65
-26.50
-23.87
-19.87
-14.82
-9.16
-3.32
2.42
7.94
13.30
18.49
23.30
27.29
29.96
30.96
30.32
28.42
25.82
22.92
19.80
16.25
12.04
7.15
1.93
-3.01
-7.06
-9.95
-11.86
-13.29
-14.85
-16.95
-19.73
-23.07
-26.74
-30.52
-34.23
-37.64
-40.45
-42.22
-42.54
-41.13
-37.96
-33.28
-27.60
-21.48
-15.46
-9.95
-5.17
-1.22
1.84
3.98
5.14
5.23
4.17
1.93
-1.41
-5.66
-10.47
-15.48
-20.30
-24.65
-28.35
-31.39
-33.86
-35.87
-37.50
-38.73
-39.44
-39.49
-38.69
-36.89
-33.95
-29.78
-24.39
-17.99
-10.93
-3.80
2.77
8.28
12.44
15.25
16.90
17.65
17.71
17.19
16.18
14.82
13.35
12.04
11.10
10.55
10.29
10.14
9.99
9.87
9.83
9.92
10.05
10.00
9.56
8.58
7.08
5.11
2.76
0.01
-3.18
-6.70
-10.23
-13.16
-14.84
-14.72
-12.69
-9.08
-4.55
0.15
4.43
8.01
10.88
13.19
15.06
16.51
17.47
17.86
17.67
17.04
16.17
15.26
14.46
13.77
13.10
12.34
11.37
10.17
8.77
7.26
5.68
4.03
2.27
0.39
-1.56
-3.49
-5.31
-7.04
-8.81
-10.81
-13.11
-15.51
-17.52
-18.49
-17.85
-15.45
-11.59
-6.97
-2.38
1.56
4.64
6.96
8.84
10.51
12.04
13.35
14.25
14.69
14.71
14.48
14.20
14.00
13.87
13.74
13.46
12.96
12.27
11.51
10.84
10.36
10.08
9.86
9.52
8.87
7.80
6.24
4.14
1.53
-1.54
-4.85
-8.02
-10.52
-11.82
-11.51
-9.51
-6.00
-1.43
3.60
8.52
12.81
16.12
18.28
19.35
19.52
19.11
18.48
17.85
17.36
17.05
16.88
16.83
16.87
16.96
17.03
16.92
16.50
15.70
14.54
13.12
11.57
9.95
8.26
6.42
4.35
1.99
-0.67
-3.56
-6.59
-9.54
-12.14
-13.98
-14.68
-13.94
-11.71
-8.15
-3.69
1.14
5.84
9.97
13.30
15.71
17.22
17.92
17.94
17.42
16.52
15.38
14.16
12.97
11.85
10.79
9.72
8.61
7.45
6.28
5.15
4.07
3.01
1.89
0.68
-0.59
-1.79
-2.76
-3.45
-3.91
-4.39
-5.23
-6.76
-9.07
-11.99
-15.01
-17.50
-18.77
-18.36
-16.14
-12.32
-7.40
-1.99
3.32
8.09
12.08
15.19
17.48
19.02
19.90
20.24
20.19
19.93
19.63
19.39
19.18
18.86
18.20
17.07
15.48
13.63
11.80
10.27
9.16
8.43
7.92
7.41
6.72
5.70
4.26
2.37
0.03
-2.67
-5.62
-8.73
-11.92
-15.14
-18.32
-21.27
-23.68
-25.09
-25.11
-23.53
-20.45
-16.33
-11.76
-7.36
-3.52
-0.39
2.12
4.24
6.17
8.06
9.99
11.93
13.90
15.86
17.74
19.42
20.72
21.44
21.46
20.82
19.72
18.43
17.19
16.05
14.87
13.36
11.21
8.28
4.66
0.69
-3.14
-6.39
-8.78
-10.32
-11.34
-12.31
-13.70
-15.67
-18.00
-20.05
-20.92
-19.79
-16.08
-9.75
-1.26
8.40
18.02
26.41
32.78
36.96
39.46
41.17
43.07
45.78
49.40
53.46
57.18
59.73
60.47
59.16
55.96
51.38
46.17
41.09
36.79
33.62
31.61
30.51
29.92
29.40
28.56
27.18
25.15
22.38
18.75
14.03
7.95
0.36
-8.56
-18.26
-27.79
-36.00
-41.91
-44.85
-44.67
-41.69
-36.67
-30.61
-24.64
-19.80
-16.81
-15.95
-16.94
-19.11
-21.57
-23.52
-24.44
-24.16
-22.82
-20.76
-18.36
-15.95
-13.83
-12.16
-10.98
-10.23
-9.71
-9.18
-8.44
-7.33
-5.86
-4.13
-2.29
-0.56
0.83
1.65
1.67
0.77
-1.08
-3.74
-6.99
-10.57
-14.15
-17.44
-20.07
-21.66
-21.84
-20.29
-16.96
-12.08
-6.18
0.07
5.95
10.92
14.69
17.29
18.91
19.89
20.54
21.04
21.47
21.80
22.02
22.09
22.01
21.79
21.36
20.69
19.76
18.60
17.28
15.92
14.60
13.37
12.21
11.03
9.75
8.33
6.78
5.19
3.59
1.96
0.21
-1.71
-3.73
-5.57
-6.80
-6.96
-5.72
-3.02
0.95
5.74
10.77
15.48
19.37
22.15
23.75
24.33
24.19
23.63
22.85
21.88
20.66
19.10
17.15
14.82
12.10
9.00
5.48
1.55
-2.66
-6.91
-10.89
-14.27
-16.79
-18.35
-19.01
-18.91
-18.26
-17.23
-15.97
-14.56
-13.07
-11.54
-9.94
-8.11
-5.78
-2.56
1.88
7.69
14.67
22.29
29.81
36.47
41.69
45.14
46.73
46.54
44.71
41.42
36.90
31.48
25.53
19.42
13.44
7.79
2.58
-2.05
-5.84
-8.40
-9.36
-8.48
-5.80
-1.64
3.49
9.05
14.50
19.32
22.95
24.79
24.35
21.40
16.10
9.00
0.90
-7.35
-15.09
-21.79
-27.08
-30.65
-32.26
-31.83
-29.57
-25.98
-21.82
-17.83
-14.65
-12.62
-11.78
-11.96
-12.87
-14.19
-15.61
-16.88
-17.79
-18.20
-18.06
-17.41
-16.37
-15.14
-13.87
-12.71
-11.77
-11.09
-10.64
-10.34
-10.08
-9.76
-9.42
-9.20
-9.30
-9.97
-11.33
-13.30
-15.64
-17.97
-19.82
-20.76
-20.46
-18.79
-15.84
-12.00
-7.81
-3.79
-0.33
2.42
4.54
6.19
7.50
8.51
9.21
9.63
9.85
10.06
10.36
10.81
11.28
11.58
11.59
11.31
10.94
10.74
10.90
11.40
11.96
12.17
11.69
10.37
8.35
5.95
3.46
1.02
-1.41
-3.98
-6.73
-9.51
-11.91
-13.45
-13.77
-12.76
-10.63
-7.77
-4.60
-1.40
1.73
4.82
7.93
11.06
14.13
16.99
19.53
21.67
23.36
24.57
25.23
25.29
24.69
23.42
21.54
19.12
16.29
13.11
9.65
5.94
2.07
-1.83
-5.61
-9.09
-12.13
-14.69
-16.83
-18.68
-20.36
-21.91
-23.24
-24.12
-24.28
-23.48
-21.66
-18.91
-15.48
-11.67
-7.83
-4.21
-1.04
1.53
3.42
4.68
5.42
5.83
6.10
6.39
6.74
7.11
7.44
7.66
7.72
7.66
7.46
7.15
6.73
6.24
5.71
5.24
4.89
4.73
4.76
4.96
5.33
5.87
6.62
7.67
9.10
10.99
13.40
16.33
19.73
23.48
27.39
31.29
35.10
38.87
42.78
47.09
51.92
57.20
62.65
67.83
72.33
75.85
78.21
79.27
78.82
76.57
72.18
65.39
56.18
44.87
32.16
19.06
6.81
-3.30
-10.22
-13.57
-13.95
-12.95
-12.95
-16.34
-24.68
-37.95
-54.08
-69.39
-79.58
-81.09
-72.45
-54.94
-32.46
-10.54
5.27
11.04
5.56
-9.33
-29.54
-50.02
-66.20
-75.04
-75.42
-67.96
-54.58
-38.06
-21.60
-8.42
-1.34
-2.19
-11.25
-27.03
-46.46
-65.62
-80.74
-89.27
-90.53
-85.92
-78.40
-71.52
-68.35
-70.55
-77.85
-88.27
-98.85
-106.73
-110.13
-108.66
-103.02
-94.32
-83.50
-71.34
-58.71
-47.17
-38.81
-35.55
-38.12
-45.31
-54.12
-60.65
-61.61
-55.31
-42.19
-24.47
-5.43
11.39
23.35
29.44
30.57
28.82
26.07
22.92
18.69
12.69
5.97
1.98
5.39
19.48
43.68
73.08
100.41
119.25
126.58
123.17
111.88
95.49
75.68
53.63
31.17
11.25
-2.96
-9.88
-10.52
-8.07
-5.98
-5.50
-4.45
2.26
20.30
52.96
99.06
152.50
203.94
243.64
264.53
263.83
243.13
207.02
161.22
111.45
63.27
22.44
-4.96
-13.67
-1.01
31.34
76.90
125.92
168.20
196.33
207.54
203.74
189.99
171.79
153.00
134.78
115.80
93.29
64.35
27.22
-17.84
-67.99
-117.96
-161.15
-191.74
-207.08
-209.15
-204.21
-200.39
-204.25
-218.10
-239.39
-262.24
-280.31
-289.14
-287.12
-274.90
-254.24
-227.10
-195.54
-162.03
-129.58
-101.38
-80.08
-66.95
-61.51
-61.58
-63.93
-65.45
-64.24
-60.37
-55.82
-53.29
-54.49
-58.65
-61.88
-57.87
-39.63
-1.86
56.62
131.54
213.22
288.59
344.48
371.31
365.29
328.87
269.35
196.56
120.88
51.95
-2.22
-36.38
-49.22
-44.20
-28.60
-10.95
2.50
10.06
14.54
20.43
30.36
42.90
52.52
51.98
35.61
2.09
-44.52
-95.52
-139.87
-167.49
-172.55
-155.42
-122.64
-84.73
-52.59
-34.05
-31.91
-44.00
-64.98
-88.56
-109.23
-123.09
-127.74
-122.19
-106.68
-82.93
-54.18
-24.84
0.24
17.02
23.35
19.65
8.94
-4.15
-14.80
-19.71
-18.19
-12.11
-4.96
-0.18
0.29
-3.26
-8.39
-11.39
-8.44
3.28
24.53
53.41
85.25
113.38
130.74
131.96
115.21
83.10
42.20
1.23
-31.42
-50.02
-52.81
-42.09
-23.14
-2.27
15.07
25.68
29.19
27.62
24.29
22.61
25.00
32.28
43.58
56.59
68.13
75.07
75.19
67.83
53.93
35.46
14.54
-7.24
-28.82
-49.35
-67.69
-82.41
-92.27
-96.87
-96.84
-93.46
-87.92
-80.65
-71.33
-59.49
-45.41
-30.62
-17.66
-9.20
-6.86
-10.51
-18.33
-27.57
-35.81
-41.85
-46.14
-50.32
-56.27
-64.97
-75.92
-87.34
-97.04
-103.47
-106.28
-106.11
-103.98
-100.54
-95.91
-90.04
-83.14
-75.42
-66.39
-54.25
-36.36
-10.80
21.59
56.12
85.30
101.77
101.69
86.77
63.64
41.07
26.62
24.71
36.78
62.76
102.38
154.84
217.08
282.45
340.87
381.46
396.25
383.14
346.28
293.89
234.69
174.93
117.62
63.68
13.75
-30.71
-67.83
-96.42
-116.96
-131.40
-142.06
-150.38
-156.43
-159.39
-158.44
-153.62
-145.85
-136.45
-126.46
-116.33
-106.10
-95.74
-85.55
-76.10
-68.15
-62.12
-57.87
-54.53
-50.82
-45.41
-37.61
-27.74
-17.21
-8.11
-2.38
-0.90
-2.90
-5.90
-6.43
-1.32
10.91
29.08
49.33
66.30
75.06
72.92
60.46
41.24
20.37
2.68
-8.66
-12.84
-11.05
-5.65
0.76
6.07
9.20
10.30
10.58
11.97
16.42
25.31
39.19
57.63
79.40
102.42
123.65
139.10
144.46
136.29
113.61
78.90
38.01
-1.46
-32.65
-51.80
-59.36
-59.48
-57.90
-59.53
-66.54
-77.87
-90.21
-99.74
-103.77
-101.65
-94.55
-84.51
-73.33
-62.02
-50.90
-40.22
-30.66
-23.37
-19.42
-19.22
-22.28
-27.45
-33.63
-40.15
-46.58
-52.05
-54.42
-50.11
-35.00
-6.22
35.98
87.10
138.85
181.10
204.71
204.21
179.49
135.86
82.72
31.14
-8.71
-29.90
-29.94
-11.07
20.80
57.81
92.37
118.99
135.30
141.99
141.59
136.80
128.89
116.94
98.40
70.60
32.81
-12.33
-58.73
-98.43
-124.30
-132.82
-125.49
-108.29
-89.42
-76.19
-72.70
-78.93
-91.62
-106.04
-117.87
-124.27
-124.06
-117.33
-104.94
-88.24
-69.10
-49.85
-33.07
-21.00
-14.84
-14.27
-17.40
-21.41
-23.58
-22.22
-17.28
-10.16
-2.83
3.30
8.24
13.55
21.81
35.38
55.13
79.59
105.00
126.16
137.88
136.49
120.78
92.27
54.81
13.60
-25.71
-57.96
-79.17
-87.03
-81.24
-63.56
-37.44
-7.18
22.99
49.85
71.66
88.24
100.51
109.78
116.73
120.59
118.93
108.55
87.06
54.69
14.98
-26.00
-61.93
-88.69
-105.68
-115.30
-120.86
-124.45
-125.95
-123.58
-115.66
-102.02
-84.28
-65.05
-46.61
-30.18
-16.04
-4.34
4.08
7.68
4.92
-4.67
-19.69
-36.95
-52.52
-63.10
-67.49
-66.86
-64.20
-62.81
-64.72
-69.90
-76.54
-82.23
-85.34
-85.72
-84.35
-82.26
-79.47
-74.63
-65.54
-50.14
-27.43
2.16
36.97
74.58
112.13
146.35
173.78
191.34
197.17
191.39
176.27
155.42
132.35
109.29
86.81
64.60
42.64
22.00
4.32
-9.59
-20.96
-33.17
-49.88
-73.16
-101.76
-130.92
-154.03
-164.91
-160.06
-139.71
-107.63
-69.11
-29.95
5.25
33.87
55.56
71.79
85.00
97.56
110.82
126.01
143.22
161.89
180.86
198.43
212.91
223.23
229.30
231.98
234.18
238.98
249.37
267.30
293.11
325.43
361.45
397.38
420.16
419.46
389.74
333.88
262.25
187.91
121.05
66.15
22.76
-11.85
-37.11
-54.42
-64.41
-67.95
-67.04
-64.66
-63.72
-66.10
-72.30
-80.74
-88.14
-91.82
-90.81
-86.23
-80.59
-76.39
-75.00
-76.13
-77.60
-76.94
-72.44
-64.30
-54.70
-47.22
-45.14
-50.13
-61.60
-77.39
-94.75
-111.80
-128.51
-146.53
-169.06
-199.43
-239.98
-291.21
-351.64
-416.67
-478.78
-528.99
-558.58
-563.05
-543.08
-503.80
-452.98
-399.05
-347.27
-298.80
-251.84
-203.17
-152.92
-105.15
-66.91
-46.01
-48.86
-75.96
-120.97
-172.74
-218.09
-249.10
-264.44
-268.18
-257.46
-232.94
-196.71
-152.05
-111.37
-77.15
-50.33
-31.57
-18.19
-7.57
2.77
15.63
32.94
54.75
80.48
106.98
131.10
151.40
168.23
182.62
196.37
211.12
227.59
246.43
266.50
286.29
304.98
322.60
339.84
358.52
380.97
408.94
443.06
480.59
515.96
542.09
552.29
542.23
511.55
463.90
405.53
343.36
282.22
224.09
168.75
114.98
61.88
9.70
-40.53
-87.57
-130.29
-167.66
-198.35
-220.71
-233.84
-239.17
-241.46
-247.97
-265.54
-297.00
-338.75
-381.29
-412.72
-423.48
-409.89
-374.82
-325.34
-269.14
-211.49
-154.30
-97.43
-40.70
14.51
65.24
108.09
140.69
162.61
175.13
180.22
179.51
173.72
163.00
147.70
129.13
109.73
92.48
79.93
73.23
71.91
74.19
77.95
81.47
83.96
85.38
86.03
86.06
85.21
82.99
78.94
73.02
65.85
58.59
52.63
49.18
48.81
51.21
55.20
59.07
61.03
59.77
54.82
46.62
36.39
25.88
16.93
11.23
9.95
13.49
21.38
32.32
44.52
56.12
65.56
71.89
74.73
74.17
70.60
64.65
57.11
48.97
41.28
35.02
30.78
28.46
27.14
25.26
21.25
14.49
6.01
-1.36
-3.79
2.15
17.98
42.31
70.98
98.22
118.30
127.07
122.86
106.29
79.65
45.83
7.70
-32.25
-72.06
-110.38
-146.81
-182.12
-218.11
-256.92
-299.90
-346.30
-392.75
-433.75
-463.24
-476.47
-471.52
-449.62
-414.57
-371.34
-324.82
-278.69
-235.17
-194.85
-156.97
-119.77
-80.91
-37.65
12.86
72.80
142.49
218.97
295.56
362.85
411.23
434.22
430.59
404.78
364.66
318.46
271.97
227.43
184.02
139.41
91.38
39.13
-16.05
-70.98
-121.39
-163.20
-193.68
-211.86
-218.02
-212.51
-195.51
-167.85
-132.53
-95.97
-67.34
-55.97
-67.57
-101.28
-149.25
-199.23
-238.64
-258.56
-255.73
-232.01
-192.35
-142.28
-86.65
-29.72
23.90
68.95
100.49
115.92
116.86
109.22
101.11
99.29
106.26
119.57
133.72
143.38
146.02
142.75
137.13
133.14
133.38
138.29
146.25
154.30
158.90
156.94
146.69
128.36
104.24
77.81
52.48
30.29
11.62
-4.19
-17.63
-28.19
-34.61
-36.01
-33.19
-29.00
-27.51
-32.06
-43.51
-59.51
-75.25
-85.31
-85.61
-74.81
-54.31
-27.56
1.27
28.35
50.84
67.05
76.31
78.68
74.92
66.40
55.08
43.42
33.92
28.64
28.71
34.00
43.29
54.64
66.06
75.98
83.63
88.99
92.51
94.83
96.41
97.48
98.04
98.02
97.46
96.58
95.81
95.68
96.71
99.27
103.42
108.90
115.19
121.70
128.02
134.15
140.49
147.63
155.90
164.86
173.17
178.77
179.64
174.61
163.96
149.43
133.65
119.16
107.55
99.17
93.46
89.55
87.00
86.03
87.16
90.67
95.87
101.06
103.86
102.17
95.05
83.17
68.70
54.36
42.26
32.92
24.88
15.42
1.77
-17.44
-41.33
-66.94
-90.62
-109.57
-123.30
-133.93
-145.40
-161.97
-186.92
-221.71
-265.57
-315.16
-364.23
-404.46
-427.68
-429.25
-411.28
-383.49
-360.44
-355.89
-376.61
-418.96
-470.32
-514.58
-538.82
-537.91
-514.67
-476.64
-431.29
-382.95
-332.38
-278.66
-221.45
-162.40
-105.25
-54.68
-14.75
12.53
27.86
34.69
38.83
47.11
65.45
96.46
137.82
182.14
218.88
237.63
231.24
197.64
139.84
64.79
-18.42
-99.89
-170.05
-220.85
-246.92
-246.65
-222.52
-180.57
-128.80
-75.28
-26.33
14.37
45.93
69.91
89.77
109.93
134.81
167.78
210.47
262.17
319.64
377.17
427.12
461.37
473.22
459.44
421.65
365.95
300.97
234.94
173.19
117.46
67.05
21.12
-19.41
-51.41
-70.88
-75.16
-64.79
-43.87
-18.81
4.19
21.87
35.43
49.78
70.65
101.17
139.62
179.91
214.36
237.43
247.88
248.33
242.51
232.29
216.34
191.23
154.14
105.11
47.29
-14.75
-77.22
-138.35
-197.68
-254.35
-305.79
-347.99
-376.91
-390.35
-388.92
-375.72
-355.16
-331.38
-307.20
-283.72
-260.57
-236.58
-210.60
-182.09
-151.35
-119.12
-85.96
-51.57
-14.53
27.30
75.62
130.38
188.77
245.26
292.73
324.25
334.83
322.46
288.36
236.61
173.33
105.78
41.33
-13.42
-53.55
-76.63
-83.16
-76.54
-62.42
-47.38
-37.22
-35.37
-41.69
-52.31
-60.68
-59.69
-44.39
-14.23
26.27
68.83
104.16
124.95
128.12
115.48
92.94
68.86
51.70
47.52
57.90
78.93
101.95
116.23
112.65
87.10
41.96
-14.97
-73.54
-124.91
-164.02
-190.10
-205.44
-213.31
-216.37
-215.79
-211.50
-203.05
-190.52
-175.21
-159.52
-146.18
-136.93
-131.45
-127.29
-120.78
-109.00
-91.29
-70.04
-49.64
-34.51
-26.91
-25.79
-26.97
-24.72
-13.63
9.78
46.29
93.85
147.80
201.29
246.01
273.72
278.32
258.09
217.09
164.61
112.76
72.65
50.81
47.38
56.71
70.14
79.54
80.05
71.03
55.27
37.24
21.44
11.54
10.14
18.74
37.43
64.27
94.99
123.52
143.35
149.58
140.49
118.18
87.78
55.69
27.57
6.87
-5.60
-11.36
-13.26
-14.42
-17.44
-23.66
-32.95
-43.67
-53.12
-58.40
-57.44
-49.79
-37.04
-22.31
-9.21
-0.52
2.82
1.81
-1.21
-3.68
-3.79
-1.02
3.94
9.65
14.49
17.03
16.24
11.48
2.36
-11.45
-30.29
-54.53
-84.30
-118.98
-156.83
-194.93
-229.69
-257.71
-276.80
-286.51
-288.12
-284.07
-277.13
-269.70
-263.60
-260.01
-259.48
-261.75
-265.46
-268.13
-266.51
-257.55
-239.43
-212.32
-178.16
-139.86
-100.16
-60.76
-22.12
16.13
54.71
94.43
136.06
179.96
225.57
271.03
313.61
350.35
379.04
398.40
407.60
405.17
388.49
354.59
302.19
234.01
157.50
83.36
22.18
-19.18
-39.61
-43.15
-36.44
-25.72
-15.07
-6.51
-1.17
-0.56
-6.72
-21.30
-44.03
-71.99
-100.33
-123.95
-139.32
-145.44
-143.51
-135.93
-125.19
-113.26
-101.55
-91.01
-81.92
-73.50
-63.54
-48.85
-26.35
5.45
45.33
89.14
130.70
163.65
183.27
187.87
179.07
160.88
138.14
114.83
93.17
73.73
56.31
40.77
27.15
15.08
3.32
-10.08
-26.43
-44.89
-61.68
-70.78
-66.17
-44.44
-6.32
43.42
97.68
149.02
191.01
218.91
229.94
223.93
204.00
176.42
148.94
127.90
115.27
107.59
97.52
77.50
43.68
-2.05
-52.84
-100.21
-137.66
-162.96
-177.90
-186.31
-191.62
-195.52
-198.06
-198.57
-196.65
-192.64
-187.40
-181.77
-175.92
-169.18
-160.53
-149.37
-136.33
-123.32
-112.76
-106.15
-102.71
-98.75
-88.23
-64.62
-23.28
36.19
108.89
185.03
252.03
297.60
312.90
294.96
247.71
181.21
109.08
44.89
-1.44
-25.96
-31.00
-23.44
-11.60
-1.98
2.98
5.28
10.01
22.69
46.52
80.61
119.81
156.00
180.43
186.32
170.96
136.80
91.28
45.04
9.16
-8.13
-4.07
17.54
47.40
73.61
85.48
76.84
47.55
2.96
-48.36
-97.53
-137.68
-165.08
-179.14
-181.64
-175.81
-165.48
-154.29
-145.06
-139.23
-136.79
-136.60
-137.02
-136.63
-134.56
-130.68
-125.33
-119.24
-113.29
-108.18
-104.04
-100.01
-94.18
-83.81
-66.12
-39.24
-3.19
39.66
84.64
125.53
155.98
170.89
167.87
148.20
116.87
81.74
51.95
35.93
39.32
63.65
105.49
157.06
207.90
247.62
268.83
269.29
252.26
224.87
195.17
168.96
148.01
130.02
110.77
86.81
57.64
26.28
-2.26
-23.35
-35.05
-38.98
-39.53
-41.91
-49.85
-64.35
-83.55
-103.84
-121.31
-133.06
-137.79
-135.71
-128.10
-116.62
-103.04
-89.34
-77.97
-71.90
-73.99
-85.79
-106.30
-131.59
-155.67
-172.41
-177.61
-170.32
-152.78
-129.00
-103.11
-78.00
-55.10
-34.98
-18.08
-4.88
4.52
11.06
16.88
24.41
35.16
48.62
62.27
72.66
77.20
75.43
68.92
59.92
49.90
39.24
28.18
18.17
12.03
12.46
19.66
29.96
36.94
34.81
22.04
2.85
-14.53
-21.81
-14.69
5.38
32.51
59.46
80.82
94.40
100.76
101.74
99.41
95.48
91.44
88.82
88.95
92.18
97.12
100.49
98.25
87.38
67.92
43.88
22.28
10.19
11.16
22.84
37.09
43.09
32.15
1.73
-43.31
-92.91
-136.07
-164.79
-175.91
-170.78
-153.74
-130.36
-106.21
-86.01
-72.81
-67.42
-68.10
-71.41
-73.80
-73.19
-69.68
-64.94
-60.86
-58.44
-57.53
-57.31
-56.83
-55.11
-50.94
-43.05
-31.14
-16.70
-3.16
5.12
4.72
-5.25
-22.87
-44.51
-66.39
-85.52
-99.47
-106.11
-103.93
-93.24
-77.05
-60.91
-50.94
-51.20
-61.81
-79.00
-96.69
-108.82
-111.10
-101.66
-80.93
-51.58
-18.39
12.16
33.20
39.48
29.36
5.51
-26.05
-58.03
-83.90
-99.14
-101.47
-90.50
-67.40
-34.44
5.51
49.60
95.67
142.28
188.22
231.81
270.81
302.97
327.22
344.54
357.88
370.98
386.65
405.33
424.72
440.48
447.96
443.71
426.49
397.33
359.00
315.16
269.54
225.35
184.77
148.71
116.84
87.85
59.90
31.29
0.89
-31.72
-66.22
-101.89
-138.12
-174.69
-212.03
-251.51
-295.34
-345.84
-404.04
-468.04
-532.08
-587.35
-624.52
-637.19
-624.41
-591.04
-545.42
-495.93
-447.94
-402.97
-359.91
-317.26
-274.79
-233.59
-195.02
-159.25
-124.79
-89.15
-50.02
-6.17
42.37
94.33
147.55
199.06
245.19
282.22
307.50
320.67
324.17
322.44
319.99
319.46
320.54
320.40
315.42
302.91
282.10
254.00
220.52
183.80
146.13
110.30
79.69
57.72
46.78
47.11
56.33
69.99
82.89
90.64
90.79
83.10
69.08
51.08
31.43
11.84
-6.69
-23.57
-38.29
-50.21
-58.50
-62.40
-61.50
-55.92
-46.40
-34.17
-20.76
-7.79
3.29
11.46
16.27
17.92
17.15
14.89
12.04
9.22
6.76
4.81
3.54
3.19
4.04
6.20
9.51
13.45
17.25
20.05
21.10
19.89
16.29
10.44
2.80
-6.03
-15.35
-24.48
-32.81
-39.96
-45.81
-50.61
-54.86
-59.18
-64.07
-69.59
-75.35
-80.57
-84.36
-86.12
-85.80
-83.94
-81.48
-79.40
-78.36
-78.44
-79.20
-79.88
-79.73
-78.26
-75.38
-71.26
-66.12
-59.86
-51.79
-40.77
-25.54
-5.38
19.30
46.70
73.96
97.99
116.38
128.10
133.62
134.43
132.28
128.51
123.79
118.19
111.60
104.01
95.70
87.07
78.46
70.07
61.90
53.96
46.41
39.63
34.11
30.22
28.06
27.24
26.89
25.84
23.00
17.57
9.37
-1.16
-13.12
-25.55
-37.63
-48.97
-59.46
-69.10
-77.73
-84.93
-90.18
-93.08
-93.55
-91.82
-88.31
-83.37
-77.17
-69.65
-60.72
-50.43
-39.06
-27.16
-15.37
-4.34
5.45
13.70
20.30
25.27
28.72
30.85
31.96
32.41
32.60
32.91
33.54
34.42
35.25
35.51
34.69
32.30
27.94
21.22
11.77
-0.70
-16.13
-33.90
-52.65
-70.49
-85.23
-94.76
-97.31
-91.67
-77.19
-53.94
-22.97
13.50
52.12
88.81
119.46
140.87
151.32
150.85
141.00
124.23
103.33
80.81
58.59
37.89
19.30
2.98
-11.16
-23.34
-33.81
-42.82
-50.56
-57.07
-62.15
-65.40
-66.35
-64.63
-60.31
-53.93
-46.48
-39.18
-33.15
-29.23
-27.80
-28.84
-31.99
-36.61
-41.87
-46.74
-50.15
-51.03
-48.61
-42.61
-33.36
-21.81
-9.23
3.08
14.12
23.34
30.58
35.95
39.63
41.75
42.41
41.75
39.95
37.31
34.20
31.02
28.14
25.88
24.37
23.58
23.23
22.78
21.63
19.22
15.18
9.54
2.63
-4.90
-12.35
-19.08
-24.64
-28.88
-31.83
-33.64
-34.49
-34.46
-33.57
-31.80
-29.12
-25.60
-21.37
-16.70
-11.90
-7.35
-3.39
-0.24
2.04
3.57
4.54
5.19
5.65
5.94
5.99
5.68
4.87
3.39
1.05
-2.29
-6.63
-11.77
-17.18
-22.23
-26.19
-28.58
-29.21
-28.25
-26.18
-23.53
-20.80
-18.27
-16.04
-14.06
-12.32
-10.95
-10.21
-10.42
-11.71
-13.91
-16.51
-18.70
-19.58
-18.30
-14.26
-7.21
2.55
14.10
26.02
36.64
44.40
48.36
48.44
45.43
40.77
36.03
32.50
30.82
30.89
31.96
32.97
32.87
30.99
27.17
21.75
15.56
9.64
5.07
2.71
2.95
5.60
9.87
14.59
18.49
20.64
20.67
18.85
15.93
12.80
10.21
8.49
7.56
6.96
6.05
4.25
1.21
-3.06
-8.22
-13.66
-18.60
-22.28
-24.07
-23.59
-20.85
-16.29
-10.73
-5.24
-0.89
1.53
1.69
-0.29
-3.94
-8.69
-14.04
-19.61
-25.10
-30.20
-34.47
-37.46
-38.78
-38.28
-36.12
-32.76
-28.79
-24.85
-21.34
-18.49
-16.29
-14.59
-13.19
-11.94
-10.78
-9.74
-8.95
-8.58
-8.78
-9.57
-10.84
-12.27
-13.46
-13.99
-13.51
-11.83
-8.94
-5.00
-0.43
4.13
7.98
10.48
11.31
10.52
8.53
5.87
3.03
0.29
-2.19
-4.30
-5.92
-6.88
-7.07
-6.52
-5.38
-3.86
-2.11
-0.24
1.75
3.84
5.99
8.13
10.14
11.86
13.14
13.80
13.78
13.12
12.05
10.91
10.06
9.76
10.08
10.86
11.81
12.61
13.07
13.17
13.09
13.04
13.22
13.71
14.48
15.35
16.12
16.57
16.47
15.72
14.30
12.34
10.08
7.78
5.66
3.76
2.03
0.43
-0.93
-1.74
-1.51
0.17
3.42
7.81
12.35
15.66
16.33
13.28
6.16
-4.48
-17.32
-30.55
-42.24
-50.85
-55.38
-55.53
-51.61
-44.44
-35.20
-25.33
-16.40
-9.84
-6.64
-7.17
-11.02
-17.06
-23.73
-29.32
-32.40
-32.04
-28.03
-20.85
-11.57
-1.60
7.61
14.89
19.51
21.34
20.88
19.04
16.96
15.60
15.44
16.31
17.51
18.23
17.92
16.62
14.88
13.48
12.99
13.48
14.56
15.61
16.12
15.84
14.81
13.18
11.00
8.22
4.76
0.75
-3.42
-7.05
-9.36
-9.78
-8.20
-5.08
-1.38
1.82
3.64
3.68
2.18
-0.19
-2.61
-4.43
-5.32
-5.31
-4.61
-3.44
-1.95
-0.20
1.72
3.66
5.35
6.54
7.03
6.78
5.87
4.46
2.71
0.79
-1.18
-3.06
-4.63
-5.66
-5.98
-5.47
-4.23
-2.48
-0.52
1.39
3.04
4.33
5.19
5.58
5.47
4.91
4.01
2.95
1.94
1.14
0.67
0.65
1.18
2.36
4.21
6.60
9.26
11.88
14.15
15.91
17.10
17.70
17.72
17.16
16.12
14.80
13.43
12.27
11.42
10.81
10.27
9.58
8.62
7.43
6.16
5.03
4.25
3.92
4.04
4.47
4.97
5.30
5.32
5.01
4.54
4.21
4.34
5.19
6.92
9.54
12.96
17.04
21.66
26.73
32.19
37.98
43.98
49.98
55.77
61.14
65.95
70.16
73.68
76.49
78.53
80.00
81.50
84.10
89.19
98.00
111.24
128.89
150.45
175.34
202.98
232.49
262.14
288.91
308.84
318.20
314.89
299.46
275.07
246.28
217.41
191.19
168.38
148.30
129.81
112.16
95.25
79.39
64.85
51.45
38.39
24.50
8.67
-9.48
-29.28
-49.15
-67.29
-82.59
-95.36
-107.36
-120.99
-138.22
-159.67
-184.58
-211.36
-238.26
-263.68
-285.88
-302.73
-311.99
-312.21
-303.77
-289.17
-272.42
-257.47
-246.63
-239.71
-234.08
-225.80
-211.22
-188.53
-158.60
-124.92
-92.60
-66.77
-50.96
-46.13
-50.87
-62.34
-77.35
-92.96
-106.29
-113.99
-112.42
-98.89
-73.61
-40.87
-8.62
14.08
20.43
8.64
-17.25
-48.58
-74.80
-86.74
-79.46
-53.90
-17.12
19.47
43.48
45.77
23.66
-18.11
-69.41
-118.77
-157.52
-182.13
-193.99
-197.19
-196.03
-193.33
-189.84
-184.73
-176.24
-162.46
-142.29
-116.34
-87.27
-59.30
-36.89
-23.11
-18.39
-20.50
-25.57
-29.57
-29.63
-24.76
-15.85
-5.22
4.15
9.66
9.93
5.18
-3.01
-12.50
-21.49
-29.11
-35.30
-40.35
-44.56
-48.05
-50.80
-52.56
-52.51
-49.24
-41.46
-29.06
-14.16
-0.77
6.82
6.47
-0.14
-7.75
-9.71
-1.23
18.38
45.25
72.65
93.61
103.53
101.52
90.17
74.54
60.45
52.89
54.73
66.35
86.10
111.39
139.79
169.52
199.25
227.57
252.52
271.49
281.68
280.65
266.97
240.59
203.11
157.77
109.06
61.93
20.81
-11.08
-32.39
-43.71
-47.13
-45.56
-41.35
-35.04
-24.34
-4.73
28.22
75.52
132.31
187.81
228.60
243.93
230.38
193.50
145.41
99.59
65.70
46.89
40.43
40.83
43.07
44.41
44.15
42.23
38.03
30.08
17.20
-0.33
-20.28
-38.82
-52.34
-59.04
-59.61
-56.71
-53.38
-51.33
-50.20
-47.90
-41.96
-31.05
-15.84
1.14
16.41
26.80
30.54
27.75
20.19
10.43
0.86
-7.15
-13.57
-19.37
-25.69
-33.10
-41.23
-48.96
-55.02
-58.67
-60.04
-60.00
-59.75
-60.43
-62.69
-66.66
-71.89
-77.48
-82.23
-84.92
-84.61
-80.99
-74.46
-66.04
-57.03
-48.60
-41.42
-35.65
-31.03
-27.18
-23.80
-20.85
-18.45
-16.74
-15.74
-15.27
-14.95
-14.39
-13.30
-11.71
-10.00
-8.84
-9.06
-11.31
-15.81
-22.22
-29.61
-36.66
-42.22
-45.69
-47.43
-48.66
-50.89
-55.20
-61.57
-68.78
-74.92
-78.29
-78.17
-75.15
-70.76
-66.90
-65.20
-66.55
-70.89
-76.94
-82.03
-82.27
-73.30
-51.83
-17.34
26.99
74.63
117.74
149.86
168.21
174.30
172.79
169.20
167.89
171.09
179.21
191.76
207.96
226.79
246.29
263.21
273.23
272.30
258.18
231.59
196.10
156.97
119.30
86.34
58.77
34.96
12.13
-12.30
-39.51
-68.78
-97.75
-123.32
-142.63
-154.01
-157.45
-154.71
-148.71
-142.59
-138.57
-137.22
-137.36
-136.84
-133.66
-126.98
-117.36
-106.10
-94.23
-81.82
-68.20
-52.79
-36.11
-20.10
-7.50
-0.67
-0.52
-6.24
-15.82
-27.00
-37.88
-47.18
-53.94
-57.13
-55.63
-48.54
-35.70
-18.13
1.85
21.11
36.42
45.43
47.42
43.44
35.89
27.60
20.86
16.83
15.45
15.88
17.06
18.21
18.93
19.27
19.43
19.67
20.22
21.10
22.16
23.07
23.41
22.87
21.48
19.61
17.75
16.30
15.30
14.35
12.88
10.47
7.16
3.51
0.35
-1.58
-1.90
-0.74
1.42
4.02
6.68
9.24
11.70
13.97
15.81
16.89
16.98
16.20
15.03
14.23
14.43
15.82
18.04
20.22
21.30
20.34
16.80
10.67
2.51
-6.66
-15.46
-22.37
-26.12
-26.04
-22.48
-16.88
-11.68
-9.69
-13.25
-23.31
-38.66
-55.90
-70.03
-75.71
-68.87
-47.81
-13.90
28.74
74.09
115.39
146.36
162.34
161.09
143.30
112.37
73.67
33.20
-3.70
-33.37
-54.18
-66.53
-72.55
-75.52
-79.20
-86.66
-99.10
-114.93
-129.94
-138.58
-136.17
-120.92
-94.74
-62.60
-30.70
-4.49
12.68
19.82
17.81
8.61
-5.25
-21.03
-35.90
-47.23
-53.00
-52.27
-45.44
-34.16
-20.93
-8.37
1.44
7.51
10.13
10.65
11.07
13.43
19.28
29.30
43.09
59.20
75.37
88.84
96.87
97.23
88.78
71.82
48.19
21.01
-5.92
-29.08
-46.24
-57.30
-64.46
-71.40
-81.61
-96.58
-114.54
-130.76
-139.11
-134.20
-113.00
-75.35
-23.63
37.88
103.29
165.10
214.74
243.87
246.78
222.54
175.80
115.57
52.41
-4.73
-50.36
-82.50
-101.50
-108.51
-104.64
-91.05
-69.46
-42.43
-13.17
15.17
40.13
60.36
75.39
85.23
89.84
89.04
82.63
70.78
54.36
34.98
14.64
-4.73
-21.66
-35.23
-44.80
-49.80
-49.57
-43.63
-32.15
-16.29
1.83
19.65
34.90
46.26
53.55
57.45
58.84
58.35
56.02
51.58
44.78
35.74
25.09
13.88
3.31
-5.61
-12.17
-16.11
-17.54
-16.94
-15.04
-12.80
-11.33
-11.74
-15.02
-21.88
-32.51
-46.51
-62.73
-79.34
-93.92
-103.89
-107.09
-102.39
-90.19
-72.36
-51.73
-31.23
-13.05
1.84
13.64
23.13
31.04
37.51
42.09
44.04
42.86
38.67
32.33
25.22
18.90
14.67
13.24
14.65
18.39
23.69
29.87
36.43
42.97
48.96
53.53
55.51
53.89
48.34
39.57
29.28
19.61
12.29
8.13
6.87
7.48
8.82
10.00
10.53
10.15
8.64
5.74
1.36
-4.14
-9.94
-14.84
-17.80
-18.29
-16.63
-13.83
-11.32
-10.46
-12.11
-16.45
-22.92
-30.42
-37.58
-43.06
-45.84
-45.49
-42.20
-36.77
-30.43
-24.55
-20.31
-18.36
-18.61
-20.09
-21.26
-20.48
-16.68
-9.86
-1.20
7.40
14.10
17.87
18.82
17.98
16.64
15.71
15.39
15.32
15.03
14.40
13.78
13.80
14.93
17.18
19.94
22.31
23.41
22.84
20.74
17.63
14.14
10.65
7.26
3.90
0.58
-2.40
-4.56
-5.42
-4.74
-2.63
0.40
3.69
6.50
8.20
8.27
6.46
2.87
-1.94
-7.07
-11.50
-14.42
-15.54
-15.18
-14.07
-13.06
-12.85
-13.79
-15.89
-18.93
-22.46
-25.96
-28.88
-30.72
-31.18
-30.26
-28.25
-25.71
-23.17
-21.03
-19.53
-18.71
-18.55
-19.04
-20.09
-21.46
-22.66
-23.03
-21.91
-18.96
-14.20
-8.08
-1.09
6.43
14.48
23.28
32.77
42.31
50.53
55.68
56.23
51.56
42.24
29.96
17.00
5.64
-2.35
-6.10
-5.68
-2.10
2.97
7.58
9.99
9.21
5.11
-1.59
-9.84
-18.50
-26.54
-32.75
-35.67
-33.68
-25.65
-11.77
5.95
23.97
38.26
45.62
44.66
35.92
21.28
3.10
-16.40
-35.19
-51.29
-62.49
-66.50
-61.51
-46.92
-23.79
5.06
35.62
63.59
85.19
97.90
100.66
93.90
79.24
59.25
37.01
15.72
-1.90
-14.15
-20.84
-23.26
-23.76
-24.92
-28.53
-34.92
-42.83
-49.86
-53.36
-51.36
-43.28
-30.09
-13.91
2.64
17.25
28.36
35.34
38.30
37.87
34.94
30.56
25.86
21.86
19.29
18.34
18.59
19.14
18.97
17.37
14.23
10.16
6.26
3.68
3.15
4.64
7.33
9.81
10.67
8.97
4.68
-1.39
-7.87
-13.43
-17.28
-19.42
-20.51
-21.46
-22.94
-25.07
-27.40
-29.13
-29.52
-28.14
-25.02
-20.58
-15.41
-10.10
-5.10
-0.67
3.12
6.32
9.04
11.38
13.34
14.84
15.77
16.00
15.57
14.74
13.94
13.60
13.96
14.88
15.91
16.37
15.67
13.51
9.96
5.44
0.57
-3.89
-7.24
-8.89
-8.52
-6.06
-1.81
3.64
9.49
14.85
18.91
21.10
21.20
19.39
16.18
12.27
8.40
5.13
2.82
1.60
1.41
2.06
3.21
4.38
4.93
4.23
1.83
-2.35
-7.91
-14.05
-19.84
-24.46
-27.54
-29.20
-29.94
-30.42
-31.14
-32.22
-33.32
-33.80
-32.87
-29.95
-24.85
-17.90
-9.89
-1.91
4.97
9.91
12.55
12.97
11.66
9.27
6.42
3.67
1.47
0.26
0.43
2.30
5.90
10.87
16.43
21.57
25.35
27.22
27.16
25.59
23.14
20.37
17.64
15.07
12.63
10.28
7.99
5.76
3.61
1.60
-0.11
-1.28
-1.53
-0.59
1.62
4.78
8.25
11.22
12.91
12.84
10.91
7.38
2.69
-2.66
-8.14
-13.24
-17.45
-20.32
-21.61
-21.43
-20.23
-18.72
-17.61
-17.29
-17.74
-18.51
-18.93
-18.38
-16.51
-13.36
-9.32
-5.01
-1.10
1.85
3.50
3.77
2.85
1.16
-0.74
-2.25
-2.85
-2.24
-0.45
2.16
5.01
7.45
8.99
9.39
8.70
7.18
5.26
3.40
2.07
1.61
2.25
3.93
6.38
9.07
11.39
12.79
12.88
11.53
8.87
5.21
1.01
-3.32
-7.36
-10.81
-13.52
-15.39
-16.46
-16.82
-16.68
-16.28
-15.95
-15.95
-16.32
-16.86
-17.04
-16.27
-14.09
-10.48
-5.96
-1.48
1.98
3.74
3.67
2.22
0.17
-1.67
-2.75
-2.80
-1.78
0.17
2.75
5.59
8.20
10.11
11.03
10.98
10.25
9.33
8.66
8.50
8.80
9.33
9.74
9.67
8.84
7.08
4.31
0.59
-3.90
-8.78
-13.53
-17.48
-19.86
-20.01
-17.49
-12.37
-5.30
2.58
9.88
15.33
18.17
18.25
16.02
12.21
7.60
2.82
-1.63
-5.35
-7.85
-8.70
-7.61
-4.64
-0.31
4.50
8.79
11.85
13.37
13.52
12.78
11.70
10.70
10.01
9.60
9.26
8.61
7.20
4.69
0.98
-3.67
-8.62
-13.02
-15.99
-16.91
-15.59
-12.27
-7.59
-2.42
2.38
6.12
8.41
9.27
8.98
7.90
6.39
4.65
2.74
0.74
-1.28
-3.16
-4.75
-6.01
-6.99
-7.81
-8.59
-9.38
-10.10
-10.63
-10.89
-10.86
-10.60
-10.26
-9.96
-9.81
-9.87
-10.14
-10.56
-10.99
-11.27
-11.15
-10.44
-9.05
-6.99
-4.46
-1.72
0.89
3.07
4.61
5.46
5.78
5.91
6.29
7.26
8.89
10.88
12.71
13.82
13.84
12.77
10.91
8.68
6.46
4.51
2.93
1.78
1.14
1.08
1.54
2.37
3.27
3.89
3.97
3.37
2.07
0.19
-2.15
-4.82
-7.68
-10.49
-12.97
-14.65
-15.08
-13.87
-10.91
-6.44
-1.13
4.16
8.58
11.57
13.01
13.17
12.54
11.62
10.73
10.02
9.48
9.10
8.85
8.75
8.74
8.68
8.35
7.50
5.94
3.61
0.68
-2.49
-5.41
-7.58
-8.67
-8.61
-7.69
-6.46
-5.63
-5.84
-7.43
-10.35
-14.16
-18.07
-21.14
-22.47
-21.45
-17.97
-12.52
-6.14
-0.09
4.45
6.81
7.01
5.69
3.80
2.20
1.41
1.46
2.06
2.78
3.26
3.34
3.01
2.39
1.62
0.84
0.20
-0.17
-0.14
0.37
1.39
2.80
4.39
5.88
6.99
7.47
7.21
6.22
4.61
2.56
0.24
-2.14
-4.35
-6.09
-7.01
-6.78
-5.24
-2.50
1.05
4.71
7.75
9.56
9.84
8.68
6.54
3.98
1.58
-0.30
-1.54
-2.19
-2.42
-2.39
-2.19
-1.85
-1.37
-0.73
0.04
0.87
1.64
2.29
2.79
3.17
3.48
3.76
3.89
3.74
3.03
1.60
-0.58
-3.32
-6.22
-8.78
-10.52
-11.08
-10.33
-8.32
-5.29
-1.64
2.20
5.82
8.92
11.26
12.77
13.44
13.30
12.41
10.86
8.85
6.69
4.77
3.46
3.02
3.51
4.71
6.23
7.62
8.53
8.86
8.81
8.73
9.02
9.90
11.32
12.96
14.37
15.12
14.99
14.00
12.45
10.78
9.53
9.22
10.23
12.63
16.05
19.75
22.68
23.74
22.14
17.57
10.30
1.16
-8.74
-18.18
-26.15
-32.08
-35.85
-37.83
-38.72
-39.27
-40.17
-41.86
-44.56
-48.23
-52.66
-57.47
-62.12
-66.00
-68.48
-69.01
-67.15
-62.68
-55.50
-45.66
-33.41
-19.22
-3.87
11.61
26.07
38.40
47.77
53.76
56.32
55.68
52.26
46.52
38.99
30.24
21.01
12.13
4.42
-1.50
-5.38
-7.35
-7.77
-7.02
-5.28
-2.56
1.13
5.56
10.15
14.04
16.41
16.75
15.05
11.75
7.52
2.97
-1.42
-5.37
-8.63
-10.93
-11.97
-11.63
-10.04
-7.69
-5.25
-3.40
-2.48
-2.46
-2.95
-3.43
-3.44
-2.69
-1.10
1.40
4.82
9.20
14.45
20.29
26.14
31.31
35.19
37.43
38.11
37.62
36.50
35.16
33.69
31.92
29.50
26.24
22.19
17.78
13.57
10.07
7.51
5.80
4.64
3.66
2.60
1.34
-0.20
-2.23
-5.09
-9.13
-14.43
-20.55
-26.48
-30.89
-32.57
-30.97
-26.48
-20.35
-14.24
-9.67
-7.54
-7.96
-10.36
-13.86
-17.58
-20.93
-23.57
-25.41
-26.49
-26.93
-26.84
-26.30
-25.26
-23.58
-21.06
-17.59
-13.27
-8.42
-3.54
0.97
4.90
8.38
11.65
14.86
17.85
20.10
20.85
19.39
15.51
9.79
3.70
-0.61
-0.82
4.85
17.15
35.71
59.07
85.14
111.44
135.33
154.26
166.04
169.29
163.90
151.15
133.33
113.14
92.95
74.51
58.96
46.98
38.86
34.22
32.00
30.50
28.08
23.78
17.77
11.09
4.97
-0.07
-4.50
-9.64
-16.86
-26.83
-39.06
-52.04
-63.73
-72.23
-76.29
-75.67
-71.09
-63.97
-55.98
-48.55
-42.56
-38.33
-35.83
-35.05
-36.07
-39.03
-43.79
-49.68
-55.53
-59.88
-61.44
-59.44
-53.92
-45.59
-35.70
-25.61
-16.50
-9.11
-3.70
-0.15
1.76
2.19
1.14
-1.43
-5.49
-10.78
-16.91
-23.42
-29.89
-35.99
-41.51
-46.36
-50.54
-54.05
-56.67
-57.85
-56.68
-52.32
-44.45
-33.72
-21.90
-11.42
-4.67
-3.30
-7.77
-17.36
-30.44
-44.90
-58.65
-69.89
-77.39
-80.68
-80.01
-76.17
-70.20
-63.11
-55.69
-48.47
-41.71
-35.48
-29.74
-24.33
-19.08
-13.91
-8.89
-4.25
-0.29
2.80
5.12
7.05
9.16
12.00
15.74
20.03
23.92
26.11
25.34
20.87
12.86
2.37
-8.81
-18.73
-25.77
-28.96
-28.11
-23.60
-16.23
-7.04
2.73
11.67
18.47
22.20
22.70
20.59
17.19
13.95
12.03
12.03
13.96
17.40
21.70
26.03
29.45
30.96
29.72
25.39
18.43
10.11
2.21
-3.48
-5.80
-4.45
0.03
6.57
13.97
21.25
27.68
32.66
35.65
36.11
33.68
28.38
20.76
11.84
2.87
-4.92
-10.59
-13.61
-13.96
-12.08
-8.78
-5.13
-2.15
-0.62
-0.84
-2.63
-5.47
-8.70
-11.67
-13.88
-15.01
-14.93
-13.77
-11.93
-10.05
-8.87
-8.94
-10.39
-12.82
-15.36
-16.91
-16.55
-13.84
-9.05
-3.07
2.89
7.71
10.65
11.54
10.62
8.45
5.80
3.67
3.34
6.18
13.21
24.49
38.89
54.27
68.18
78.81
85.49
88.68
89.40
88.61
86.73
83.73
79.40
73.67
66.60
58.18
48.21
36.28
22.16
6.09
-11.05
-27.85
-42.81
-54.77
-63.15
-67.98
-69.69
-68.91
-66.34
-62.62
-58.33
-53.94
-49.72
-45.80
-42.26
-39.33
-37.53
-37.50
-39.60
-43.43
-47.59
-49.84
-47.88
-40.25
-27.00
-9.79
8.61
25.21
37.55
44.21
44.90
40.29
31.71
20.86
9.44
-1.18
-10.14
-17.15
-22.31
-25.85
-27.85
-28.09
-26.12
-21.41
-13.60
-2.83
10.06
23.44
35.21
43.32
46.48
44.61
38.81
30.92
22.87
16.14
11.69
10.03
11.37
15.60
22.12
29.74
36.79
41.56
42.82
40.16
33.90
24.94
14.34
3.14
-7.73
-17.35
-24.75
-28.97
-29.37
-25.83
-18.93
-9.83
0.04
9.45
17.60
24.24
29.41
33.25
35.77
36.97
36.93
35.94
34.33
32.22
29.23
24.46
16.90
5.99
-7.79
-22.80
-36.50
-46.27
-50.22
-47.86
-40.27
-29.67
-18.73
-9.74
-4.01
-1.66
-1.92
-3.56
-5.49
-7.04
-8.08
-8.77
-9.41
-10.20
-11.23
-12.53
-14.03
-15.57
-16.79
-17.12
-15.91
-12.69
-7.40
-0.55
6.82
13.47
18.31
20.66
20.44
18.11
14.47
10.45
6.91
4.51
3.57
4.07
5.67
7.80
9.87
11.42
12.28
12.55
12.46
12.27
12.07
11.81
11.33
10.50
9.21
7.44
5.19
2.45
-0.75
-4.30
-7.94
-11.22
-13.61
-14.63
-13.99
-11.76
-8.37
-4.45
-0.69
2.40
4.62
6.03
6.86
7.28
7.36
6.95
5.85
3.94
1.31
-1.67
-4.45
-6.45
-7.25
-6.74
-5.07
-2.63
0.11
2.69
4.71
5.91
6.12
5.34
3.69
1.37
-1.38
-4.43
-7.67
-10.97
-14.11
-16.68
-18.23
-18.36
-16.97
-14.26
-10.69
-6.76
-2.90
0.67
3.88
6.67
8.91
10.41
10.93
10.34
8.66
6.14
3.17
0.20
-2.36
-4.23
-5.36
-5.85
-5.93
-5.81
-5.67
-5.56
-5.51
-5.51
-5.58
-5.75
-6.10
-6.70
-7.58
-8.76
-10.14
-11.50
-12.52
-12.78
-11.96
-9.89
-6.71
-2.80
1.34
5.19
8.41
10.87
12.60
13.70
14.29
14.44
14.24
13.81
13.38
13.17
13.43
14.29
15.70
17.36
18.79
19.45
18.90
16.98
13.85
10.01
6.05
2.52
-0.26
-2.22
-3.53
-4.43
-5.18
-5.93
-6.66
-7.21
-7.26
-6.43
-4.48
-1.41
2.43
6.45
9.98
12.52
13.85
14.16
13.85
13.36
13.01
12.90
12.87
12.66
12.03
10.84
9.12
7.00
4.63
2.13
-0.44
-3.00
-5.42
-7.48
-8.87
-9.38
-8.97
-7.86
-6.48
-5.32
-4.79
-5.12
-6.37
-8.41
-10.99
-13.71
-16.00
-17.21
-16.77
-14.40
-10.29
-5.15
0.01
4.21
6.80
7.73
7.41
6.48
5.51
4.76
4.15
3.44
2.42
1.07
-0.40
-1.68
-2.51
-2.85
-2.91
-2.99
-3.38
-4.17
-5.23
-6.25
-6.87
-6.87
-6.27
-5.34
-4.53
-4.33
-5.08
-6.84
-9.35
-12.07
-14.35
-15.59
-15.40
-13.66
-10.62
-6.77
-2.75
0.81
3.55
5.43
6.78
8.10
9.83
12.13
14.75
17.16
18.73
19.07
18.12
16.18
13.78
11.44
9.54
8.22
7.51
7.32
7.56
8.07
8.62
8.85
8.39
6.95
4.46
1.16
-2.50
-5.95
-8.76
-10.75
-11.98
-12.67
-12.98
-12.99
-12.58
-11.59
-9.93
-7.72
-5.25
-2.87
-0.91
0.47
1.32
1.76
1.97
2.09
2.18
2.29
2.42
2.58
2.76
2.89
2.85
2.48
1.66
0.38
-1.19
-2.77
-4.07
-4.85
-5.08
-4.89
-4.54
-4.28
-4.33
-4.80
-5.70
-7.00
-8.58
-10.29
-11.89
-13.12
-13.68
-13.31
-11.86
-9.28
-5.68
-1.36
3.29
7.81
11.75
14.77
16.74
17.65
17.67
17.00
15.87
14.42
12.78
11.07
9.35
7.69
6.16
4.81
3.71
2.87
2.23
1.60
0.69
-0.79
-3.06
-6.06
-9.42
-12.47
-14.39
-14.57
-12.81
-9.46
-5.33
-1.39
1.61
3.41
4.24
4.65
5.17
6.09
7.42
8.96
10.51
11.97
13.31
14.53
15.58
16.29
16.53
16.22
15.46
14.45
13.45
12.63
12.07
11.69
11.33
10.82
10.08
9.14
8.20
7.59
7.69
8.82
11.15
14.50
18.34
21.81
23.98
24.05
21.75
17.42
11.99
6.72
2.82
1.07
1.53
3.51
5.63
6.27
4.01
-1.89
-11.17
-22.67
-34.60
-45.16
-53.02
-57.59
-59.01
-57.89
-54.98
-51.01
-46.53
-41.98
-37.69
-33.95
-30.96
-28.86
-27.68
-27.32
-27.41
-27.41
-26.69
-24.73
-21.40
-17.05
-12.43
-8.46
-5.91
-5.20
-6.29
-8.73
-11.74
-14.37
-15.70
-15.02
-12.04
-6.87
-0.09
7.47
14.89
21.33
26.09
28.66
28.79
26.51
22.16
16.42
10.24
4.69
0.73
-0.94
-0.11
2.92
7.32
11.97
15.72
17.61
17.18
14.53
10.37
5.96
2.81
2.31
5.22
11.32
19.35
27.29
33.09
35.31
33.65
28.92
22.64
16.32
11.01
7.03
4.16
2.00
0.20
-1.35
-2.70
-3.91
-5.22
-6.90
-9.08
-11.62
-14.08
-15.92
-16.74
-16.58
-15.84
-15.16
-15.10
-15.93
-17.50
-19.40
-21.05
-21.89
-21.45
-19.42
-15.73
-10.71
-5.16
-0.26
2.66
2.56
-0.97
-7.45
-15.62
-23.73
-30.01
-33.06
-32.17
-27.35
-19.29
-9.09
1.90
12.33
21.05
27.17
30.18
30.08
27.50
23.59
19.81
17.34
16.67
17.45
18.75
19.56
19.34
18.20
16.73
15.72
15.79
17.24
20.09
24.12
28.86
33.58
37.31
39.00
37.81
33.35
25.76
15.65
3.98
-8.09
-19.33
-28.59
-34.93
-37.84
-37.28
-33.62
-27.48
-19.57
-10.60
-1.29
7.55
15.07
20.43
22.99
22.41
18.81
12.72
5.09
-2.86
-9.73
-14.22
-15.27
-12.38
-5.84
3.23
13.01
21.45
26.79
27.92
24.54
16.88
5.47
-9.11
-26.08
-44.16
-61.35
-75.14
-83.13
-83.82
-77.14
-64.40
-47.72
-29.29
-10.87
6.20
20.73
31.48
37.26
37.43
32.40
23.78
14.07
5.89
1.26
1.02
4.77
11.06
17.99
23.65
26.74
26.84
24.42
20.55
16.38
12.65
9.48
6.55
3.41
-0.10
-3.85
-7.51
-10.90
-14.03
-17.08
-20.02
-22.49
-23.74
-22.98
-19.73
-14.06
-6.67
1.41
9.00
15.09
19.04
20.68
20.46
19.35
18.59
19.30
22.09
26.83
32.70
38.47
42.94
45.26
45.08
42.51
37.93
31.86
24.93
17.79
10.99
4.91
-0.37
-5.01
-9.30
-13.44
-17.52
-21.51
-25.35
-29.05
-32.55
-35.72
-38.16
-39.33
-38.63
-35.71
-30.62
-23.79
-15.93
-7.85
-0.36
5.82
9.99
11.64
10.53
6.82
1.17
-5.42
-11.80
-16.89
-19.99
-20.80
-19.46
-16.49
-12.61
-8.65
-5.38
-3.43
-3.15
-4.59
-7.50
-11.38
-15.59
-19.46
-22.35
-23.78
-23.44
-21.20
-17.18
-11.69
-5.31
1.31
7.49
12.75
16.80
19.56
21.01
21.04
19.41
15.82
10.18
2.78
-5.58
-13.68
-20.20
-24.02
-24.56
-21.81
-16.28
-8.81
-0.45
7.64
14.25
18.29
19.06
16.53
11.49
5.35
-0.30
-4.39
-6.63
-7.54
-8.02
-8.80
-10.07
-11.49
-12.44
-12.32
-10.80
-7.81
-3.45
2.07
8.38
14.97
21.09
25.96
28.89
29.49
27.75
24.00
18.85
13.01
7.31
2.52
-0.66
-1.87
-1.11
1.16
4.16
7.02
9.04
9.92
9.83
9.28
8.79
8.64
8.64
8.10
6.23
2.51
-2.91
-9.05
-14.35
-17.27
-16.88
-13.23
-7.35
-0.70
5.43
10.46
14.59
18.41
22.38
26.33
29.35
30.12
27.41
20.57
9.78
-4.06
-19.48
-34.57
-47.13
-54.82
-55.58
-48.26
-33.17
-12.27
11.15
33.38
51.19
62.47
66.34
62.98
53.19
38.36
20.44
1.89
-14.56
-26.55
-32.68
-32.80
-27.78
-19.02
-7.87
4.62
17.46
29.37
38.61
43.17
41.45
32.97
18.67
0.81
-17.68
-33.93
-45.71
-51.70
-51.61
-46.09
-36.63
-25.35
-14.57
-6.22
-1.35
0.19
-0.39
-1.40
-1.35
0.57
4.37
9.51
15.40
21.62
27.93
33.94
38.81
41.25
39.93
34.14
24.29
12.02
-0.36
-10.59
-17.31
-20.32
-20.44
-18.98
-17.19
-15.90
-15.39
-15.60
-16.32
-17.41
-18.98
-21.22
-24.27
-28.13
-32.47
-36.87
-40.99
-44.67
-47.91
-50.77
-53.22
-55.22
-56.79
-58.02
-58.96
-59.27
-58.10
-54.22
-46.53
-34.65
-19.27
-1.97
15.30
30.81
43.35
52.27
57.21
57.96
54.56
47.47
37.73
26.79
16.17
7.08
0.21
-4.19
-6.09
-5.48
-2.37
3.04
10.13
17.68
23.97
27.25
26.37
21.42
14.07
7.21
4.04
6.82
15.84
29.20
43.36
54.41
59.43
57.35
49.04
36.74
23.14
10.62
0.81
-5.58
-8.56
-8.64
-6.56
-3.03
1.44
6.51
11.93
17.26
21.84
24.74
25.07
22.25
16.37
8.25
-0.68
-8.74
-14.56
-17.49
-17.88
-16.92
-16.19
-16.92
-19.55
-23.44
-27.20
-29.19
-28.16
-23.61
-15.95
-6.28
3.83
12.71
18.81
21.05
19.03
13.16
4.64
-4.80
-13.31
-19.39
-22.19
-21.70
-18.68
-14.35
-10.08
-7.02
-5.78
-6.21
-7.49
-8.40
-7.93
-5.76
-2.54
0.33
1.36
-0.17
-3.78
-7.80
-10.09
-8.85
-3.35
5.89
17.53
29.81
41.06
49.78
54.60
54.35
48.18
36.05
19.02
-0.69
-20.06
-35.98
-46.05
-49.18
-45.80
-37.56
-26.75
-15.58
-5.59
2.48
8.55
12.83
15.43
16.24
15.05
11.82
6.92
1.20
-4.33
-8.83
-12.00
-14.16
-16.01
-18.17
-20.75
-23.18
-24.42
-23.48
-19.93
-14.04
-6.64
1.41
9.65
17.99
26.62
35.68
45.32
55.86
67.89
81.85
97.43
112.89
125.09
130.33
125.70
110.41
86.16
56.59
25.90
-2.43
-26.42
-45.51
-60.05
-70.72
-78.22
-83.17
-86.17
-87.90
-88.97
-89.87
-90.79
-91.54
-91.54
-90.00
-86.25
-80.01
-71.68
-62.19
-52.72
-44.19
-36.89
-30.36
-23.75
-16.26
-7.61
1.82
11.17
19.50
26.15
30.84
33.66
34.76
34.30
32.42
29.34
25.47
21.38
17.67
14.78
12.79
11.41
10.07
8.20
5.45
2.02
-1.37
-3.66
-3.87
-1.61
2.66
7.67
11.75
13.47
12.17
8.23
2.90
-2.10
-5.20
-5.42
-2.58
2.70
9.35
16.28
22.71
28.39
33.49
38.21
42.44
45.64
47.09
46.49
44.46
42.58
42.96
47.56
57.90
74.92
98.96
129.33
163.78
197.96
225.86
241.36
240.45
222.97
192.86
156.63
120.76
89.62
64.57
44.84
29.16
17.00
8.68
4.49
3.57
3.46
0.75
-7.54
-22.57
-43.00
-65.47
-86.01
-101.56
-110.92
-114.80
-114.97
-113.16
-110.24
-106.25
-100.84
-94.13
-87.00
-81.03
-77.98
-79.04
-84.37
-92.99
-103.10
-112.65
-119.77
-123.19
-122.36
-117.48
-109.44
-99.67
-89.87
-81.63
-76.13
-73.81
-74.34
-76.90
-80.51
-84.50
-88.58
-92.67
-96.64
-100.01
-101.97
-101.63
-98.32
-91.85
-82.52
-70.94
-57.84
-43.89
-29.79
-16.32
-4.24
5.78
13.45
18.93
22.69
25.28
26.95
27.67
27.16
25.23
21.90
17.60
12.96
8.64
5.22
3.03
2.13
2.25
2.86
3.22
2.64
0.67
-2.70
-7.07
-11.69
-15.72
-18.35
-18.96
-17.19
-12.96
-6.67
0.89
8.66
15.61
21.04
24.79
27.14
28.50
29.10
28.86
27.47
24.80
21.10
17.12
13.89
12.32
12.91
15.60
20.00
25.48
31.40
36.95
41.10
42.57
40.14
33.22
22.29
9.17
-3.42
-12.54
-16.03
-13.21
-4.97
6.57
18.91
29.86
38.08
43.03
44.78
43.70
40.25
35.11
29.26
24.11
21.11
21.37
24.96
30.80
36.85
40.91
41.53
38.66
33.76
29.18
27.18
28.97
34.27
41.65
49.22
55.57
60.24
63.51
65.64
66.27
64.54
60.02
53.78
48.87
49.59
59.66
80.25
109.14
141.34
171.04
193.56
206.24
208.14
199.11
179.12
148.67
109.68
66.43
25.27
-7.16
-26.51
-32.80
-30.80
-28.02
-31.19
-42.78
-59.77
-75.36
-82.70
-78.87
-66.66
-53.09
-45.56
-47.85
-58.33
-71.10
-79.05
-77.11
-64.02
-42.35
-17.34
4.72
18.18
19.64
9.06
-9.97
-31.48
-49.36
-59.68
-61.69
-57.06
-48.11
-35.99
-20.33
-0.57
22.32
45.14
63.53
74.17
76.40
71.99
64.39
56.86
50.96
45.98
39.52
28.79
11.85
-11.52
-40.82
-73.70
-106.45
-134.84
-155.78
-168.73
-176.09
-182.09
-190.85
-206.39
-229.44
-257.37
-285.08
-307.10
-319.86
-322.87
-318.51
-311.68
-310.88
-323.38
-352.38
-394.79
-441.53
-480.15
-498.79
-490.00
-436.97
-335.61
-195.20
-36.51
116.59
246.97
348.85
424.97
480.87
520.46
543.47
549.91
542.65
527.79
512.04
499.20
488.71
476.80
458.72
430.34
391.37
345.19
297.31
252.08
210.32
168.71
125.26
77.08
21.80
-40.06
-104.56
-164.58
-211.13
-235.42
-231.51
-198.73
-143.51
-78.34
-17.88
25.91
47.83
50.51
42.23
32.55
28.09
29.99
34.91
38.11
36.43
29.64
19.71
8.88
-1.79
-12.65
-24.25
-35.54
-43.31
-43.47
-33.21
-13.22
12.00
35.75
52.06
58.21
55.78
49.52
44.72
44.70
49.38
55.75
59.60
57.48
48.12
32.64
13.85
-4.91
-20.89
-32.50
-39.40
-42.32
-42.62
-41.79
-41.18
-41.79
-44.16
-48.40
-54.26
-61.13
-67.95
-73.40
-76.11
-75.22
-70.83
-64.24
-57.73
-53.63
-53.41
-57.00
-62.63
-67.63
-69.22
-65.50
-56.14
-42.72
-28.39
-17.11
-12.51
-16.74
-30.01
-50.50
-74.89
-99.49
-121.47
-139.19
-152.18
-160.64
-164.62
-164.15
-159.07
-149.14
-134.55
-116.89
-98.38
-81.45
-68.21
-59.33
-55.43
-56.53
-61.64
-68.98
-77.63
-86.34
-93.91
-99.43
-101.13
-99.74
-97.18
-95.23
-95.24
-99.69
-109.70
-124.65
-142.25
-156.75
-165.35
-167.65
-164.92
-160.51
-161.32
-173.24
-199.22
-238.08
-281.55
-322.91
-357.28
-381.87
-377.22
-333.77
-252.95
-147.67
-56.98
8.53
50.26
73.49
90.18
105.91
120.25
131.88
140.53
147.99
160.59
180.74
207.74
239.12
270.83
297.26
314.60
321.62
319.77
314.75
309.78
306.17
304.19
302.57
298.46
289.18
272.84
248.94
220.03
188.18
155.46
124.12
95.64
70.28
47.40
25.86
4.57
-16.22
-36.37
-55.43
-72.42
-86.32
-96.21
-101.34
-101.29
-96.06
-85.92
-71.99
-56.01
-39.87
-25.40
-13.92
-6.16
-2.29
-2.01
-4.65
-9.33
-14.99
-20.56
-25.10
-27.90
-28.66
-27.50
-24.95
-21.81
-18.96
-17.12
-16.66
-17.42
-18.74
-19.63
-19.15
-16.72
-12.41
-6.84
-0.95
4.44
8.98
12.81
16.36
19.99
23.76
27.35
30.30
32.31
33.37
33.71
33.52
32.78
31.27
28.75
25.31
21.49
18.18
16.20
16.03
17.53
20.07
22.77
24.86
25.76
25.10
22.63
18.16
11.80
4.20
-3.33
-9.05
-11.27
-9.05
-2.58
6.82
17.16
26.47
33.38
37.35
38.50
37.33
34.37
30.06
24.78
19.00
13.23
8.01
3.78
0.74
-1.22
-2.41
-3.19
-3.83
-4.37
-4.79
-5.05
-5.26
-5.72
-6.83
-8.91
-12.00
-15.74
-19.43
-22.12
-22.96
-21.39
-17.42
-11.61
-5.01
1.17
5.80
8.14
8.02
5.78
2.17
-1.91
-5.64
-8.37
-9.78
-9.81
-8.66
-6.72
-4.51
-2.61
-1.49
-1.38
-2.12
-3.25
-4.16
-4.30
-3.46
-1.82
0.13
1.77
2.52
1.99
0.00
-3.36
-7.74
-12.46
-16.62
-19.25
-19.58
-17.30
-12.65
-6.29
0.91
8.16
14.91
20.76
25.42
28.56
29.86
29.13
26.44
22.20
17.07
11.81
7.06
3.31
0.77
-0.51
-0.60
0.36
2.26
4.97
8.34
12.07
15.63
18.31
19.24
17.72
13.41
6.60
-1.73
-10.09
-16.75
-20.21
-19.57
-14.70
-6.37
4.05
14.94
24.82
32.70
38.16
41.28
42.39
41.84
39.92
36.94
33.34
29.76
26.92
25.35
25.11
25.70
26.16
25.50
23.03
18.70
13.06
6.97
1.26
-3.63
-7.70
-11.29
-14.83
-18.51
-22.25
-25.62
-28.09
-29.14
-28.46
-25.93
-21.66
-15.88
-8.95
-1.42
5.98
12.32
16.70
18.44
17.40
14.12
9.72
5.51
2.68
1.85
2.99
5.54
8.66
11.51
13.40
13.89
12.74
9.90
5.54
0.10
-5.77
-11.17
-15.27
-17.47
-17.57
-15.84
-12.96
-9.82
-7.23
-5.81
-5.79
-7.08
-9.23
-11.50
-13.01
-12.95
-10.76
-6.37
-0.31
6.55
13.26
19.07
23.63
26.87
28.86
29.61
29.09
27.31
24.46
20.92
17.16
13.55
10.20
7.05
3.95
0.84
-2.11
-4.57
-6.17
-6.72
-6.36
-5.57
-5.00
-5.34
-7.01
-10.05
-14.08
-18.33
-21.81
-23.56
-22.80
-19.25
-13.18
-5.47
2.65
9.94
15.56
19.34
21.63
23.07
24.17
25.02
25.37
24.83
23.15
20.41
17.02
13.52
10.31
7.54
5.04
2.53
-0.17
-3.03
-5.72
-7.77
-8.89
-9.12
-8.96
-9.25
-10.85
-14.33
-19.65
-26.05
-32.09
-35.98
-36.02
-31.27
-22.09
-10.36
0.87
8.24
9.32
3.58
-7.15
-19.20
-28.20
-30.54
-24.52
-10.95
7.07
25.05
38.36
43.57
39.53
27.75
12.11
-2.33
-10.80
-10.34
-0.60
16.07
35.41
52.40
62.51
62.79
52.54
33.53
9.79
-13.34
-30.54
-38.18
-35.42
-24.51
-10.05
2.68
9.45
8.31
-0.00
-12.72
-26.06
-36.42
-41.33
-39.89
-32.87
-22.34
-11.00
-1.41
4.82
7.54
7.88
7.83
9.22
13.03
19.03
25.96
32.15
36.21
37.43
35.76
31.67
25.76
18.67
11.00
3.28
-4.06
-10.83
-17.09
-23.04
