1660924037.00
64.000000
-0.00
-0.00
-0.00
-0.00
-0.00
-0.00
-0.00
-0.00
-0.00
-0.00
0.00
0.01
0.01
-0.00
-0.03
-0.05
-0.05
0.00
0.13
0.36
0.66
1.01
1.37
1.72
2.06
2.40
2.79
3.24
3.80
4.42
5.06
5.66
6.20
6.68
7.15
7.68
8.31
9.14
10.09
11.04
11.88
12.56
13.14
13.76
14.65
15.96
17.91
20.32
22.90
25.38
27.58
29.57
31.68
34.32
37.81
42.54
48.15
54.10
59.83
64.97
69.58
74.14
79.34
85.71
93.76
103.00
112.62
121.73
129.77
136.75
143.30
150.75
157.77
166.64
177.95
191.79
206.97
220.57
228.25
225.36
208.53
176.87
132.76
80.05
23.07
-34.94
-92.44
-149.16
-205.23
-260.37
-313.74
-363.88
-409.84
-450.91
-486.50
-515.73
-537.21
-549.18
-549.90
-538.28
-514.08
-478.50
-433.65
-382.16
-326.66
-269.40
-212.11
-156.05
-102.26
-51.59
-5.01
36.62
72.62
102.71
126.99
145.92
160.22
170.62
177.82
182.28
184.34
184.19
182.02
178.04
172.56
165.99
158.75
151.26
143.84
136.65
129.69
122.87
116.00
108.98
101.81
94.69
87.94
81.91
76.79
72.54
68.79
65.00
60.74
55.86
50.73
46.06
42.67
41.05
41.01
41.66
41.71
40.12
36.59
31.86
27.46
24.98
25.25
27.73
30.47
30.84
26.65
17.20
3.76
-10.95
-23.85
-33.14
-39.07
-43.80
-50.49
-61.62
-77.94
-98.43
-120.87
-142.35
-159.29
-167.88
-164.94
-149.68
-125.42
-99.70
-82.06
-79.60
-92.58
-112.92
-127.08
-122.25
-92.76
-42.93
15.10
67.34
103.89
122.48
127.23
124.72
120.17
115.71
110.95
104.62
95.66
84.00
70.32
56.01
43.07
33.90
30.47
33.50
42.07
53.47
64.13
71.46
74.83
75.45
75.42
76.79
81.21
90.26
104.45
122.51
140.92
154.10
156.00
142.76
114.26
72.43
24.97
-19.14
-53.33
-75.32
-86.45
-89.68
-87.63
-81.90
-73.70
-64.18
-55.34
-49.17
-46.70
-47.35
-49.27
-50.08
-48.11
-43.00
-35.50
-27.57
-21.39
-18.42
-18.77
-21.23
-23.80
-24.57
-22.45
-17.55
-11.35
-6.07
-3.62
-4.89
-9.24
-14.89
-19.53
-21.64
-20.84
-18.38
-16.39
-16.86
-21.01
-29.30
-41.44
-56.55
-73.13
-88.55
-99.15
-101.16
-92.17
-72.82
-46.31
-19.05
3.37
18.20
26.01
29.54
31.83
35.09
39.68
45.63
53.35
64.14
79.56
100.45
126.02
152.18
173.87
184.73
179.54
156.68
119.70
76.46
36.40
6.85
-9.66
-15.37
-15.35
-14.20
-13.81
-13.29
-10.90
-6.09
-0.29
3.47
2.60
-3.80
-14.66
-27.20
-38.45
-46.87
-52.82
-58.06
-65.00
-75.15
-87.77
-101.37
-113.30
-120.82
-122.29
-118.49
-110.23
-99.73
-89.73
-82.69
-80.24
-81.74
-83.99
-81.83
-69.61
-43.45
-3.61
45.33
95.10
135.98
159.90
162.33
143.20
106.49
59.15
9.58
-33.16
-60.85
-67.90
-52.73
-18.86
25.92
71.73
109.76
134.43
145.08
145.23
140.56
136.92
138.82
149.04
168.54
195.52
224.75
248.38
257.80
246.90
215.03
167.73
115.20
68.31
34.13
13.19
1.30
-7.57
-17.92
-31.08
-45.76
-60.08
-70.20
-75.61
-79.62
-86.17
-98.06
-116.09
-139.41
-166.83
-197.11
-228.83
-259.04
-285.08
-303.38
-311.40
-309.49
-301.22
-291.94
-285.73
-283.89
-271.58
-237.56
-177.84
-99.69
-17.96
53.17
106.27
141.67
160.82
169.80
169.73
159.00
135.36
97.81
47.36
-14.27
-77.22
-134.16
-179.34
-210.68
-226.41
-224.27
-202.41
-161.48
-106.45
-45.85
9.86
53.31
80.70
92.95
93.82
87.40
76.95
64.55
52.09
40.90
32.64
27.55
24.65
21.90
17.15
9.28
-1.31
-12.51
-21.89
-27.02
-26.83
-21.77
-13.49
-4.16
5.33
15.10
26.46
40.99
59.88
83.01
108.70
134.15
154.95
169.22
176.89
179.35
178.62
176.70
175.20
175.28
177.26
180.14
181.26
176.13
160.27
131.48
91.69
46.83
4.70
-28.13
-48.92
-58.88
-61.91
-61.94
-61.01
-59.18
-55.74
-50.64
-45.01
-40.58
-38.41
-38.36
-39.18
-39.23
-37.18
-32.86
-27.08
-21.31
-16.81
-14.16
-13.11
-12.70
-11.78
-9.53
-5.85
-1.26
3.28
6.89
9.14
10.10
10.22
10.06
10.05
10.25
10.42
10.20
9.27
7.54
5.23
2.73
0.42
-1.35
-2.49
-3.08
-3.31
-3.42
-3.62
-4.04
-4.77
-5.86
-7.28
-8.95
-10.77
-12.59
-14.29
-15.73
-16.84
-17.58
-17.92
-17.80
-17.19
-16.01
-14.24
-11.96
-9.33
-6.56
-3.95
-1.65
0.30
2.04
3.81
5.81
8.16
10.82
13.70
16.49
19.08
21.53
24.09
27.02
30.49
34.48
38.78
43.20
47.27
50.73
53.41
55.22
56.22
56.77
57.68
60.17
65.50
74.13
85.69
98.83
111.44
121.19
126.07
124.69
116.11
102.51
85.49
66.72
47.71
29.55
12.83
-2.36
-16.47
-30.40
-45.39
-62.98
-83.94
-107.65
-131.83
-152.94
-167.36
-172.70
-168.71
-157.21
-141.47
-124.50
-108.14
-92.90
-78.47
-64.56
-51.29
-39.11
-28.25
-18.46
-8.76
2.10
14.90
29.33
43.92
56.20
63.61
64.29
57.68
44.70
27.55
9.12
-7.93
-21.85
-32.41
-41.03
-50.41
-63.64
-82.72
-107.38
-134.71
-159.83
-177.57
-184.41
-179.77
-166.27
-148.85
-133.36
-124.92
-126.72
-139.36
-160.69
-186.11
-209.57
-225.02
-228.12
-217.69
-196.14
-168.69
-141.59
-120.15
-107.54
-104.59
-110.27
-122.49
-138.43
-154.81
-167.96
-174.39
-171.70
-159.35
-138.73
-112.46
-83.11
-52.24
-20.36
12.37
45.22
76.42
103.62
124.79
139.28
148.15
153.76
158.80
165.27
173.75
183.43
192.63
199.62
203.32
203.56
201.01
196.70
191.63
186.39
181.17
175.91
170.55
165.10
159.63
154.10
148.30
141.82
134.15
124.90
113.94
101.35
87.33
72.02
55.57
38.30
20.99
5.02
-7.86
-15.96
-18.37
-15.33
-8.26
0.80
9.88
17.68
23.81
28.57
32.43
35.58
37.77
38.44
37.06
33.38
27.61
20.35
12.48
5.02
-0.99
-4.73
-5.89
-4.95
-3.31
-2.87
-5.26
-10.95
-18.83
-26.44
-30.99
-30.54
-24.81
-15.14
-3.84
6.75
14.81
19.18
19.14
14.36
5.29
-6.39
-17.72
-25.28
-26.51
-21.16
-11.59
-2.00
3.44
2.32
-5.07
-16.18
-27.57
-36.56
-42.19
-45.22
-47.46
-50.70
-56.01
-63.45
-72.33
-81.59
-90.21
-97.49
-103.15
-107.33
-110.43
-112.75
-114.21
-114.06
-111.03
-103.78
-91.65
-75.02
-55.32
-34.40
-13.83
5.65
23.95
41.14
56.91
70.46
80.79
87.33
90.35
90.89
90.30
89.71
89.63
90.01
90.35
90.04
88.64
85.96
82.18
77.79
73.48
69.88
67.27
65.44
63.83
61.79
58.95
55.37
51.42
47.50
43.73
39.97
35.88
31.20
26.00
20.60
15.44
10.83
6.85
3.33
-0.05
-3.66
-7.90
-13.11
-19.54
-27.08
-35.21
-42.94
-49.15
-52.95
-54.04
-52.70
-49.63
-45.50
-40.70
-35.30
-29.27
-22.77
-16.22
-10.19
-5.27
-1.78
0.19
0.74
0.08
-1.58
-3.86
-6.24
-8.01
-8.46
-7.00
-3.28
2.81
11.21
21.81
34.29
48.05
62.00
74.65
84.40
90.09
91.33
88.67
83.32
76.58
69.45
62.35
55.25
47.92
40.10
31.60
22.21
11.71
-0.13
-13.26
-27.32
-41.62
-55.37
-67.94
-79.07
-88.81
-97.36
-104.78
-110.81
-114.90
-116.35
-114.75
-110.19
-103.37
-95.44
-87.60
-80.69
-74.93
-70.05
-65.42
-60.47
-54.89
-48.70
-42.17
-35.68
-29.57
-24.09
-19.27
-14.88
-10.31
-4.69
2.96
13.32
26.47
41.62
57.26
71.54
82.81
90.11
93.35
93.23
90.85
87.39
83.81
80.70
78.37
76.83
75.81
74.69
72.48
68.13
60.78
50.29
37.28
23.14
9.41
-2.63
-12.40
-19.96
-25.80
-30.40
-34.03
-36.59
-37.76
-37.05
-33.87
-27.67
-18.03
-4.81
11.68
30.67
51.02
71.44
90.72
107.92
122.40
133.82
142.15
147.54
150.38
151.16
150.45
148.82
146.62
143.82
139.76
133.01
121.62
103.68
78.10
45.18
6.73
-34.39
-75.03
-112.49
-144.69
-170.10
-187.43
-195.66
-194.38
-184.32
-167.56
-147.25
-126.91
-109.51
-96.83
-89.22
-85.81
-84.79
-83.96
-81.22
-75.27
-66.10
-55.08
-44.44
-36.31
-31.74
-30.10
-29.36
-27.05
-21.29
-11.62
1.07
15.03
28.55
40.55
50.71
59.32
66.83
73.54
79.52
84.75
89.28
93.37
97.39
101.63
105.93
109.61
111.42
109.94
103.99
93.07
77.66
59.05
39.05
19.53
2.14
-11.92
-21.80
-27.03
-27.61
-24.03
-17.33
-8.91
-0.18
7.71
13.99
18.13
19.72
18.53
14.78
9.46
4.39
1.74
3.28
9.57
19.70
31.62
42.89
51.40
55.87
55.92
51.80
44.20
34.03
22.25
9.80
-2.54
-14.21
-24.88
-34.39
-42.66
-49.63
-55.12
-58.84
-60.40
-59.52
-56.28
-51.27
-45.50
-40.05
-35.55
-31.87
-28.15
-23.23
-16.12
-6.37
5.81
19.50
33.03
43.90
49.29
46.82
35.89
18.55
-0.64
-15.99
-22.90
-19.82
-8.89
5.05
16.57
21.98
20.65
15.02
9.13
6.72
9.40
15.88
22.26
23.64
16.25
-0.77
-24.69
-50.12
-71.06
-83.23
-85.46
-79.60
-69.00
-56.62
-43.76
-30.09
-14.63
2.85
21.20
38.24
51.99
61.74
68.15
72.48
75.20
75.20
70.24
58.41
39.78
17.31
-3.81
-18.10
-22.11
-15.91
-3.00
11.18
21.46
24.75
20.71
11.21
-0.98
-13.30
-24.04
-32.07
-36.43
-36.28
-31.38
-22.65
-12.45
-4.05
-0.35
-2.49
-9.15
-17.00
-22.56
-24.18
-22.78
-21.48
-23.90
-32.36
-46.68
-64.03
-79.90
-90.08
-92.26
-86.09
-72.62
-53.37
-29.94
-4.21
21.54
44.81
62.96
73.58
76.00
72.21
66.83
65.18
70.02
80.34
93.13
105.03
112.50
113.54
106.43
89.94
63.47
26.90
-19.89
-73.76
-126.54
-170.53
-200.66
-216.61
-221.80
-220.65
-216.28
-209.62
-200.12
-187.20
-171.92
-156.44
-143.31
-134.46
-130.88
-132.80
-139.50
-148.68
-156.29
-157.47
-147.54
-124.30
-89.52
-49.05
-10.94
17.76
33.93
38.91
36.67
31.63
26.34
21.33
16.08
10.46
5.47
2.88
4.05
8.53
15.06
21.60
26.25
28.28
28.23
27.48
27.50
29.10
32.07
35.38
37.73
38.07
36.05
32.14
27.28
22.47
18.42
15.19
12.37
9.42
5.73
0.88
-5.20
-12.28
-19.92
-27.66
-35.16
-42.30
-48.91
-55.13
-61.22
-67.31
-73.24
-78.31
-81.35
-80.68
-77.05
-70.40
-60.93
-49.21
-35.98
-21.92
-7.33
7.84
23.98
41.71
62.09
85.88
113.24
143.11
172.98
199.13
217.51
225.01
220.54
205.65
183.52
157.94
132.14
108.28
87.45
70.05
56.03
44.80
35.41
26.28
15.74
2.71
-12.78
-29.55
-45.79
-59.94
-71.48
-81.13
-90.62
-101.73
-115.25
-130.38
-145.01
-156.45
-162.61
-162.69
-157.01
-146.87
-134.41
-122.93
-116.81
-120.51
-136.35
-162.28
-191.14
-212.44
-216.18
-196.86
-155.36
-97.86
-32.47
34.39
99.63
162.76
223.68
280.82
330.85
370.00
395.89
408.69
410.98
406.64
399.49
392.27
386.06
380.74
375.55
369.77
363.06
355.36
346.53
336.07
323.13
306.92
287.25
264.78
240.93
217.36
195.36
175.34
156.84
138.85
120.24
100.28
78.74
55.84
31.96
7.32
-18.21
-45.23
-74.54
-106.57
-140.79
-175.44
-207.77
-234.89
-254.81
-267.20
-273.50
-276.26
-278.25
-281.45
-286.60
-292.99
-298.72
-301.26
-298.13
-287.82
-270.48
-248.22
-224.67
-204.01
-189.74
-183.81
-186.38
-196.15
-210.88
-227.89
-244.42
-257.80
-265.84
-267.26
-262.01
-251.28
-237.12
-221.81
-207.18
-194.22
-182.93
-172.57
-161.89
-149.68
-135.04
-117.72
-98.11
-77.08
-55.62
-34.50
-14.16
5.27
23.74
41.13
57.18
71.57
84.14
94.96
104.33
112.69
120.40
127.72
134.78
141.67
148.50
155.39
162.35
169.26
175.73
181.13
184.72
185.86
184.18
179.75
173.11
165.10
156.66
148.58
141.40
135.25
129.93
124.99
119.94
114.33
107.95
100.85
93.33
85.82
78.80
72.64
67.58
63.71
61.01
59.41
58.80
59.07
60.08
61.70
63.76
66.12
68.59
70.94
72.96
74.70
76.57
79.32
83.80
90.44
98.94
108.16
116.52
122.61
125.63
125.42
122.14
115.65
105.14
89.17
66.13
34.86
-4.71
-51.46
-103.10
-156.52
-208.25
-254.92
-293.85
-323.37
-343.11
-353.91
-357.51
-355.99
-351.24
-344.49
-336.12
-325.68
-312.19
-294.62
-272.27
-245.18
-214.04
-180.11
-144.86
-109.62
-75.44
-43.02
-12.81
14.85
39.77
61.81
80.99
97.41
111.19
122.35
130.88
136.75
140.00
140.86
139.68
136.81
132.56
127.07
120.36
112.37
103.10
92.65
81.25
69.19
56.70
43.99
31.15
18.30
5.61
-6.69
-18.29
-28.83
-37.89
-45.02
-49.80
-51.98
-51.55
-48.88
-44.57
-39.27
-33.33
-26.55
-18.27
-7.67
5.60
21.15
37.69
53.59
67.55
79.29
89.79
100.82
113.97
129.69
146.68
162.20
172.99
176.57
172.27
161.34
146.30
129.91
114.17
99.91
87.03
74.87
62.29
47.56
28.34
2.47
-30.60
-68.64
-106.58
-138.16
-158.55
-166.59
-165.12
-159.39
-154.23
-151.71
-150.81
-148.70
-143.07
-133.59
-121.90
-110.37
-100.54
-92.41
-84.81
-76.55
-67.11
-57.12
-47.90
-40.65
-35.88
-33.26
-31.89
-30.91
-29.84
-28.66
-27.53
-26.47
-25.24
-23.42
-20.74
-17.32
-13.80
-11.21
-10.57
-12.30
-15.75
-19.19
-20.33
-17.24
-9.18
3.07
17.52
31.77
43.80
52.36
57.07
58.11
56.06
51.82
46.56
41.54
37.73
35.43
34.10
32.72
30.29
26.47
21.63
16.64
12.38
9.37
7.61
6.71
6.05
5.06
3.32
0.63
-2.95
-7.14
-11.47
-15.39
-18.32
-19.79
-19.53
-17.56
-14.24
-10.27
-6.50
-3.63
-1.98
-1.25
-0.64
0.74
3.48
7.47
12.00
16.11
18.99
20.42
20.69
20.38
19.99
19.60
18.93
17.60
15.39
12.51
9.51
7.08
5.67
5.40
6.05
7.29
8.87
10.76
12.98
15.48
17.99
20.09
21.47
22.18
22.72
23.84
26.17
29.80
34.19
38.42
41.74
43.93
45.51
47.38
50.40
54.86
60.48
66.57
72.51
78.02
83.18
88.17
92.98
97.28
100.55
102.39
102.68
101.75
100.13
98.38
96.79
95.25
93.38
90.68
86.73
81.41
74.86
67.40
59.33
50.92
42.37
33.91
25.83
18.40
11.85
6.18
1.23
-3.28
-7.70
-12.39
-17.60
-23.51
-30.12
-37.16
-44.02
-49.90
-54.01
-55.84
-55.37
-53.10
-49.79
-46.14
-42.44
-38.37
-33.06
-25.35
-14.24
0.82
19.66
41.39
64.71
88.19
110.72
131.72
151.20
169.51
187.06
203.92
219.76
233.96
245.95
255.48
262.75
268.35
272.90
276.91
280.64
284.06
286.72
287.68
285.56
278.81
266.29
247.66
223.64
195.67
165.44
134.31
103.16
72.48
42.59
13.73
-14.10
-41.33
-68.86
-97.88
-129.34
-163.46
-199.36
-235.04
-267.82
-295.20
-315.80
-329.81
-338.79
-344.58
-347.98
-347.82
-341.18
-324.80
-297.05
-259.39
-216.70
-175.98
-144.17
-126.02
-122.81
-132.36
-150.12
-170.82
-190.15
-205.85
-218.11
-229.08
-241.95
-259.59
-283.16
-310.94
-337.92
-356.80
-360.29
-343.66
-306.79
-254.60
-195.38
-137.83
-88.11
-48.52
-18.32
3.89
18.79
25.67
23.14
10.52
-11.63
-41.88
-78.82
-121.35
-168.54
-217.19
-261.25
-292.86
-305.20
-295.43
-265.95
-223.37
-175.68
-130.28
-90.79
-57.42
-28.61
-3.10
19.16
37.24
50.18
62.50
75.24
87.29
96.28
100.31
98.82
92.63
83.31
72.32
61.77
52.49
45.24
40.73
39.50
41.86
47.99
56.89
67.86
80.61
94.51
109.59
126.27
145.05
166.27
190.19
217.02
246.84
279.00
310.87
338.46
357.17
363.21
354.96
333.73
303.17
268.16
232.98
200.15
170.70
144.98
123.32
106.26
94.09
86.33
81.68
78.35
74.71
70.07
64.82
59.95
56.32
53.95
51.93
48.75
43.07
34.37
23.24
11.32
0.71
-6.69
-9.77
-8.49
-3.85
2.56
9.19
15.14
20.51
26.34
33.96
44.14
56.41
68.94
79.16
84.80
84.78
79.55
70.79
60.60
50.80
42.58
36.44
32.28
29.40
26.53
22.04
14.45
3.15
-11.06
-26.06
-39.20
-48.34
-52.82
-53.46
-52.02
-50.29
-49.43
-49.85
-51.56
-54.56
-59.08
-65.36
-73.28
-82.27
-91.41
-99.87
-107.12
-113.02
-117.49
-120.33
-121.09
-119.24
-114.55
-107.15
-97.61
-86.72
-75.36
-64.38
-54.61
-46.79
-41.40
-38.55
-38.02
-39.42
-42.45
-47.12
-53.53
-61.70
-71.29
-81.59
-91.81
-101.31
-109.80
-117.28
-123.77
-129.03
-132.53
-133.65
-131.93
-127.42
-120.58
-112.12
-102.49
-91.62
-78.96
-63.92
-46.44
-27.35
-8.14
9.90
26.62
43.29
61.88
83.48
106.82
127.93
141.30
141.87
126.95
96.89
54.54
4.29
-48.58
-98.00
-136.98
-158.42
-157.05
-132.03
-88.66
-37.89
6.89
34.37
39.28
23.82
-3.94
-33.59
-56.22
-66.88
-64.99
-53.38
-36.53
-19.14
-5.18
2.66
3.49
-1.24
-7.69
-10.51
-4.75
11.86
37.21
64.62
84.66
88.39
70.67
32.60
-18.48
-71.50
-115.64
-144.48
-158.52
-164.82
-173.76
-194.12
-228.67
-272.37
-314.30
-342.22
-347.76
-329.46
-292.26
-244.36
-193.08
-142.22
-92.11
-41.47
10.46
63.03
114.87
165.13
214.10
262.67
310.90
357.01
397.41
427.97
445.42
448.71
439.22
420.23
395.87
370.09
345.81
324.45
305.88
288.77
271.27
251.84
229.82
205.70
180.77
156.57
134.26
114.18
95.74
77.81
59.23
39.48
19.00
-0.83
-18.21
-31.68
-40.68
-45.80
-48.44
-50.25
-52.42
-55.31
-58.45
-60.91
-61.84
-60.93
-58.55
-55.61
-53.05
-51.46
-50.75
-50.30
-49.31
-47.21
-43.87
-39.53
-34.48
-28.77
-22.24
-14.67
-6.08
3.25
12.93
22.66
32.40
42.20
52.17
62.38
72.72
82.86
92.25
100.29
106.61
111.08
113.83
115.32
116.10
116.44
115.97
113.66
108.17
98.66
85.15
68.40
50.22
33.10
19.69
12.22
11.82
18.12
29.55
43.36
55.26
61.92
61.99
56.57
48.34
40.07
33.41
28.96
25.65
19.36
6.75
-13.51
-40.23
-70.66
-102.08
-132.84
-161.45
-188.29
-218.49
-256.69
-305.34
-363.35
-426.41
-489.02
-546.06
-592.49
-627.43
-658.18
-692.90
-737.34
-791.86
-851.49
-909.15
-958.37
-993.32
-977.33
-887.83
-722.13
-503.07
-268.53
-53.29
121.41
238.19
309.08
347.90
361.87
357.84
343.06
325.05
311.63
306.08
304.18
300.13
287.77
262.22
224.29
178.33
130.18
85.27
46.19
14.59
-7.03
-18.76
-24.11
-26.71
-29.00
-31.27
-31.41
-28.00
-19.78
-5.24
15.36
40.09
67.08
94.95
123.21
152.01
181.27
210.81
240.66
270.27
298.86
325.92
351.40
375.95
400.99
428.24
458.92
492.43
524.96
549.97
559.94
549.22
516.46
465.39
403.16
337.70
274.67
216.45
162.82
112.84
66.38
24.34
-12.28
-43.55
-70.97
-96.83
-122.88
-149.41
-175.22
-198.19
-216.46
-229.11
-236.17
-238.25
-236.02
-229.92
-220.35
-207.89
-193.45
-178.14
-162.94
-148.46
-134.71
-121.27
-107.52
-92.95
-77.39
-61.11
-44.69
-28.83
-14.06
-0.60
11.56
22.50
32.16
40.25
46.36
50.28
52.14
52.52
52.22
52.03
52.46
53.68
55.56
57.96
60.87
64.59
69.58
76.24
84.58
94.05
103.64
112.16
118.75
123.22
125.96
127.63
128.57
128.53
126.70
122.16
114.46
104.10
92.50
81.62
73.35
68.85
68.26
70.83
75.32
80.59
85.94
91.24
96.65
102.48
109.09
117.06
127.30
140.88
158.50
179.67
202.38
223.31
238.88
246.46
245.30
236.61
222.78
206.31
188.93
171.35
153.61
135.68
117.75
100.31
83.76
68.08
52.78
37.06
20.20
1.96
-17.23
-36.30
-54.00
-69.30
-81.84
-92.01
-100.71
-108.87
-116.95
-124.62
-130.84
-134.27
-133.96
-129.91
-123.20
-115.81
-109.97
-107.36
-108.76
-113.98
-122.42
-133.63
-147.92
-166.40
-190.71
-222.69
-264.04
-316.14
-379.27
-451.74
-528.93
-603.18
-665.05
-705.99
-721.19
-711.35
-682.27
-642.28
-599.21
-558.09
-520.67
-486.50
-454.61
-424.60
-396.68
-371.06
-347.04
-323.35
-298.80
-272.98
-246.44
-220.40
-196.14
-174.39
-155.09
-136.97
-118.63
-99.13
-78.39
-56.89
-35.16
-13.39
8.65
31.39
56.27
84.31
115.54
148.94
183.04
216.63
249.21
281.03
312.90
347.89
388.41
434.54
482.80
526.93
559.99
577.26
578.23
566.77
552.31
544.09
547.59
562.60
584.45
606.56
623.17
630.85
612.39
557.80
467.28
353.25
234.89
129.23
45.07
-16.84
-60.61
-92.26
-115.53
-133.95
-149.98
-166.87
-185.33
-202.63
-213.56
-213.22
-200.02
-175.18
-143.33
-113.47
-93.78
-87.30
-91.56
-101.04
-110.82
-118.78
-124.20
-127.58
-129.16
-128.30
-123.90
-115.33
-102.65
-86.35
-67.54
-46.47
-24.23
-3.19
13.48
22.95
24.00
17.75
6.54
-4.98
-12.85
-15.66
-14.31
-10.50
-5.42
0.59
7.54
14.93
21.69
26.24
27.50
25.60
21.91
18.36
16.52
16.93
19.08
21.91
24.19
25.06
24.44
23.00
21.72
21.46
22.55
24.76
27.51
30.08
31.91
32.86
33.11
33.08
33.11
33.29
33.35
32.86
31.41
28.69
24.79
19.95
14.66
9.46
4.73
0.60
-2.95
-6.07
-8.95
-11.69
-14.43
-17.19
-20.10
-23.39
-27.47
-32.66
-38.99
-46.26
-53.71
-60.47
-65.36
-67.48
-66.54
-62.94
-57.42
-50.62
-43.25
-35.22
-26.39
-16.15
-4.22
8.90
21.67
32.15
39.00
41.14
39.20
34.03
27.61
21.62
16.59
11.54
4.50
-6.66
-24.76
-50.91
-84.75
-122.17
-156.48
-180.87
-191.41
-188.79
-171.37
-144.34
-108.82
-71.42
-38.49
-12.87
6.31
20.62
30.08
33.87
30.43
21.12
9.30
0.68
0.01
10.19
31.16
60.43
94.37
126.82
150.99
160.67
154.02
134.80
111.23
92.69
84.72
90.42
106.83
124.71
132.83
124.27
100.35
68.83
37.89
11.65
-9.85
-29.03
-47.32
-63.80
-75.79
-80.76
-78.57
-71.77
-64.51
-60.15
-60.56
-65.49
-72.71
-79.17
-82.45
-81.98
-79.09
-76.17
-75.23
-77.34
-82.32
-88.81
-94.95
-99.25
-101.17
-101.17
-100.14
-98.69
-96.86
-94.09
-89.68
-82.23
-70.75
-55.13
-36.07
-14.83
7.13
28.46
48.01
64.85
78.35
88.11
93.87
95.63
93.64
88.38
80.54
70.85
59.84
47.82
34.93
21.03
5.87
-10.75
-28.87
-48.33
-68.71
-89.41
-109.71
-128.62
-145.27
-158.88
-168.84
-174.69
-176.19
-173.23
-165.81
-155.87
-144.88
-134.19
-124.75
-116.90
-110.36
-104.31
-97.74
-89.87
-80.33
-69.10
-56.62
-43.47
-30.02
-16.23
-1.68
14.20
31.69
50.56
70.31
90.14
109.35
127.67
145.28
162.80
181.09
201.18
224.07
250.46
279.85
309.98
336.71
354.83
359.72
349.18
324.37
289.58
250.69
213.15
180.44
153.70
132.43
115.54
102.15
91.81
84.29
79.31
76.57
76.03
78.07
83.28
92.11
104.38
118.95
133.76
146.24
153.70
153.96
145.50
127.75
101.06
66.47
25.24
-21.57
-73.35
-129.44
-188.42
-247.32
-301.62
-346.09
-376.35
-390.24
-388.33
-373.20
-348.25
-316.51
-280.40
-242.16
-204.35
-169.85
-140.91
-118.05
-99.46
-81.53
-60.39
-33.45
-0.35
37.15
76.18
114.00
148.77
179.62
206.35
229.08
248.14
264.14
277.80
289.54
298.91
304.42
303.84
295.25
277.96
253.08
223.14
191.08
159.19
128.48
98.89
69.90
41.14
12.58
-15.66
-43.46
-70.78
-97.35
-122.46
-145.09
-164.26
-179.50
-191.11
-199.91
-206.74
-212.06
-215.76
-217.31
-216.12
-211.79
-204.15
-193.29
-179.61
-163.83
-146.87
-129.39
-111.27
-91.37
-67.85
-39.19
-5.09
32.98
72.23
109.58
142.68
170.42
192.64
209.64
221.58
228.51
230.56
228.26
222.51
214.45
205.04
195.01
184.96
175.44
166.82
158.96
150.80
140.22
124.57
101.40
69.53
29.57
-15.87
-62.73
-106.37
-142.69
-168.86
-183.75
-187.83
-182.73
-170.66
-153.96
-134.69
-114.51
-94.63
-75.87
-58.79
-43.79
-31.17
-21.20
-14.24
-10.64
-10.77
-14.80
-22.55
-33.33
-45.91
-58.62
-69.54
-76.91
-79.39
-76.40
-68.16
-55.55
-39.93
-22.82
-5.73
9.98
23.09
32.72
38.35
39.93
37.79
32.48
24.53
14.27
1.92
-12.20
-27.38
-42.37
-55.57
-65.36
-70.54
-70.55
-65.56
-56.31
-43.96
-29.83
-15.33
-1.94
8.90
15.82
17.72
14.03
4.96
-8.45
-24.50
-41.16
-56.60
-69.56
-79.39
-85.88
-88.87
-88.03
-83.07
-74.03
-61.46
-46.59
-30.74
-15.11
-0.04
15.13
31.67
50.50
71.59
93.74
114.91
133.15
147.22
157.03
163.49
167.94
171.17
173.52
175.24
176.80
179.26
183.02
187.31
189.97
187.84
177.08
155.81
125.43
90.49
57.80
32.17
15.40
6.45
2.30
-2.33
-11.51
-26.80
-47.16
-68.64
-90.08
-112.35
-137.07
-165.84
-202.08
-247.04
-298.74
-352.27
-398.83
-434.74
-460.08
-476.84
-488.47
-502.36
-525.20
-561.22
-610.45
-665.25
-719.86
-768.38
-804.52
-797.98
-731.05
-605.10
-442.45
-297.28
-184.24
-101.85
-43.32
3.82
45.45
80.95
109.21
131.07
150.99
177.69
212.93
253.93
296.52
336.56
369.43
393.15
408.93
422.14
441.49
469.85
505.64
544.54
580.39
605.88
616.17
611.03
597.34
585.71
581.81
584.92
588.68
584.20
563.99
526.10
463.16
379.05
285.78
196.61
121.21
62.84
19.93
-10.56
-31.00
-43.04
-46.65
-42.29
-33.65
-24.84
-18.95
-16.82
-17.00
-17.08
-15.03
-8.55
2.75
17.28
34.17
52.09
70.31
88.68
106.99
124.38
140.17
152.82
160.19
160.46
152.51
136.72
114.81
89.28
62.83
38.32
17.92
2.91
-6.23
-9.80
-8.60
-3.73
3.45
11.43
18.95
24.97
28.92
30.83
31.17
30.88
31.05
32.71
36.59
43.02
51.98
63.17
75.99
89.50
102.36
112.97
119.53
120.38
114.19
100.24
78.49
49.44
13.96
-27.07
-72.92
-122.97
-176.49
-232.34
-288.71
-343.07
-392.59
-434.25
-465.31
-483.80
-488.82
-481.21
-464.02
-442.75
-424.45
-415.65
-419.35
-432.93
-448.28
-454.48
-442.31
-407.73
-352.70
-283.10
-205.18
-122.99
-38.49
46.17
126.46
194.91
243.42
266.57
264.08
240.30
201.56
153.44
99.40
42.38
-13.18
-60.06
-89.84
-96.99
-83.02
-57.82
-36.72
-33.82
-55.80
-99.31
-153.28
-204.66
-243.97
-267.48
-275.46
-269.03
-247.17
-207.56
-149.92
-79.61
-8.71
46.62
71.54
58.20
8.27
-66.67
-148.41
-217.40
-258.00
-262.09
-230.53
-171.88
-99.39
-29.10
25.95
58.95
70.48
66.80
56.46
47.06
43.45
47.59
55.76
63.78
68.81
69.86
66.28
56.09
36.35
5.11
-36.38
-88.98
-150.10
-213.74
-271.76
-317.27
-347.93
-366.73
-380.15
-395.06
-423.69
-473.42
-543.89
-626.79
-710.30
-784.55
-844.85
-890.96
-877.92
-778.12
-589.82
-343.10
-83.77
149.94
338.44
477.87
573.27
633.69
661.71
660.67
636.29
597.60
554.30
513.47
478.37
448.27
420.75
387.39
341.64
281.88
213.42
146.58
92.59
58.82
46.96
53.27
66.67
75.99
74.45
62.09
42.23
20.45
1.37
-12.45
-20.18
-23.84
-25.33
-25.47
-23.84
-19.33
-11.21
-0.29
12.12
25.29
38.17
50.07
60.43
69.03
76.84
85.14
93.50
102.23
112.70
125.81
141.62
159.04
176.27
193.60
211.75
228.61
244.58
263.61
289.81
325.42
368.74
413.18
451.40
474.22
468.22
427.30
356.54
267.76
176.54
98.03
43.31
21.26
33.14
66.31
107.65
149.38
186.76
218.96
247.97
250.33
211.58
168.22
133.49
93.14
41.66
-21.78
-93.76
-168.14
-237.77
-290.35
-315.88
-315.83
-293.61
-252.41
-199.61
-145.18
-99.13
-68.70
-51.11
-40.10
-34.39
-31.78
-27.76
-19.12
-3.67
19.73
50.60
91.71
143.34
199.36
253.11
300.67
339.87
370.45
393.61
391.12
352.95
279.06
179.11
68.98
-36.32
-127.53
-200.50
-254.02
-289.47
-306.73
-307.49
-297.00
-280.63
-262.08
-243.15
-223.72
-201.68
-174.62
-138.50
-91.53
-35.32
23.07
74.43
109.97
119.54
100.32
58.36
8.26
-34.95
-62.42
-73.54
-73.10
-67.01
-59.36
-51.36
-43.36
-35.30
-28.17
-23.26
-21.05
-20.49
-19.86
-17.73
-13.28
-8.68
-7.49
-14.12
-31.91
-61.05
-97.25
-132.41
-155.68
-159.38
-142.95
-113.20
-81.38
-57.97
-48.26
-50.61
-58.33
-64.08
-63.03
-54.05
-38.57
-19.48
-0.23
15.21
22.91
20.46
8.36
-9.41
-26.59
-36.81
-36.79
-27.64
-14.98
-6.16
-5.75
-13.70
-26.31
-39.05
-48.43
-54.39
-57.87
-59.39
-58.50
-53.60
-43.50
-28.25
-9.16
12.05
34.15
57.21
82.37
108.71
134.97
158.41
175.30
182.40
178.61
165.48
146.94
127.77
111.96
101.95
97.93
98.42
101.26
104.59
106.94
107.31
105.22
100.71
94.92
89.55
86.20
85.71
87.13
87.03
80.24
61.74
28.78
-17.43
-72.16
-128.80
-180.92
-221.07
-242.55
-241.98
-220.81
-184.74
-140.62
-94.36
-50.18
-10.86
21.92
47.01
63.98
73.38
75.76
72.20
64.08
52.63
38.97
24.19
9.16
-5.42
-15.54
-17.41
-8.37
12.14
42.05
77.85
115.74
152.26
184.73
211.47
231.83
245.92
254.19
257.11
255.42
250.27
242.89
234.37
225.59
216.64
206.86
198.05
191.27
187.24
186.24
188.00
191.76
196.42
200.62
203.18
203.58
201.60
197.75
193.01
188.43
184.83
182.50
181.01
179.44
176.74
171.69
163.38
151.28
134.97
114.00
87.76
55.62
17.15
-27.40
-77.12
-130.33
-184.85
-238.59
-290.10
-338.82
-384.82
-428.37
-469.28
-506.51
-538.25
-562.58
-578.05
-584.55
-583.39
-577.08
-568.82
-562.20
-560.84
-567.66
-583.94
-608.10
-635.18
-657.72
-667.96
-660.68
-635.26
-595.69
-548.74
-501.21
-457.75
-420.06
-387.66
-359.11
-332.90
-307.66
-281.68
-252.80
-218.99
-179.37
-134.69
-87.41
-40.65
2.78
41.22
75.09
106.94
140.64
179.64
224.77
272.54
315.06
342.33
345.79
323.57
282.55
236.25
199.31
181.64
185.46
206.21
236.15
267.11
293.82
313.35
323.34
320.66
302.28
267.82
221.06
169.20
118.37
73.02
34.93
4.32
-18.81
-33.37
-37.69
-31.15
-7.53
30.39
71.64
102.58
115.54
111.70
97.60
79.41
60.15
40.80
19.44
-2.07
-19.05
-26.09
-19.76
0.48
31.49
67.18
100.66
125.05
134.83
127.96
106.83
74.17
36.82
2.28
-25.21
-46.04
-63.81
-79.02
-88.15
-84.90
-64.45
-26.16
25.23
79.76
127.58
162.15
182.49
192.33
197.29
201.84
208.27
216.66
226.41
238.56
256.25
283.84
324.66
378.49
440.00
499.08
543.02
560.12
543.94
495.83
425.10
346.01
273.44
218.61
186.65
176.13
180.78
192.46
203.51
208.62
205.01
192.07
170.48
141.54
106.73
67.63
26.38
-14.52
-52.52
-85.86
-114.17
-138.66
-161.66
-185.85
-213.13
-243.94
-277.17
-310.80
-343.02
-372.90
-401.07
-429.41
-460.26
-495.59
-536.61
-583.85
-637.15
-695.23
-754.66
-809.13
-850.04
-868.51
-858.38
-818.71
-754.23
-673.64
-586.53
-500.38
-419.41
-345.16
-278.12
-219.09
-169.37
-129.97
-100.64
-79.63
-64.43
-52.87
-43.97
-38.03
-36.31
-39.91
-48.98
-62.42
-77.82
-92.47
-104.28
-112.32
-116.90
-119.02
-119.71
-119.27
-116.98
-111.09
-99.53
-80.83
-54.74
-22.40
14.03
51.98
89.26
124.60
158.23
191.13
224.21
257.56
290.27
320.87
347.70
369.60
386.21
399.45
412.00
426.66
445.95
471.60
504.17
541.60
578.48
606.52
619.44
612.85
585.15
537.59
474.13
401.28
327.20
260.56
209.27
183.08
187.84
222.52
278.82
344.21
406.60
457.58
493.47
514.55
528.97
546.37
573.54
612.18
659.79
711.67
762.84
808.91
809.04
737.18
590.00
389.39
170.40
-35.52
-209.95
-347.31
-450.80
-524.17
-575.55
-610.86
-634.90
-652.81
-668.17
-682.35
-695.24
-706.37
-711.48
-702.36
-670.18
-609.84
-523.56
-420.07
-312.35
-214.11
-136.40
-87.18
-65.08
-60.45
-57.41
-48.66
-34.50
-19.16
-8.31
-4.68
-7.92
-14.21
-18.35
-16.73
-9.52
1.23
12.90
23.38
32.16
40.10
49.30
62.13
79.65
100.64
122.98
144.15
161.62
173.36
178.24
176.26
168.55
156.75
142.06
125.54
108.03
90.09
72.20
54.84
38.52
23.59
10.00
-2.98
-16.21
-30.54
-46.49
-63.90
-81.88
-98.96
-113.57
-124.83
-132.86
-138.69
-143.60
-148.49
-153.37
-157.48
-159.88
-160.13
-158.73
-156.89
-156.01
-157.07
-160.19
-164.71
-169.53
-173.54
-175.98
-176.43
-174.84
-171.31
-165.99
-158.98
-150.31
-140.00
-128.08
-114.68
-100.06
-84.58
-68.62
-52.47
-36.35
-20.47
-5.06
9.54
23.01
35.10
45.72
54.95
62.96
69.82
75.51
79.98
83.18
85.21
86.13
85.98
84.62
81.84
77.36
70.95
62.47
51.91
39.48
25.67
11.37
-2.27
-14.00
-22.96
-28.94
-32.26
-33.56
-33.31
-31.56
-28.07
-22.58
-15.07
-6.23
2.76
10.58
16.16
18.88
18.71
16.00
11.39
5.73
-0.46
-7.03
-13.94
-21.09
-28.07
-34.20
-38.92
-42.35
-45.33
-49.91
-58.36
-71.15
-87.05
-103.24
-116.59
-125.20
-130.35
-131.79
-127.77
-115.76
-93.88
-62.11
-24.33
12.81
42.24
59.18
63.28
57.98
49.02
42.36
42.19
50.03
64.90
84.02
103.76
120.55
131.18
133.23
125.55
108.46
84.09
56.39
30.60
12.13
4.91
9.50
22.41
37.03
45.92
43.78
29.78
7.97
-14.20
-28.93
-31.24
-20.74
-1.37
20.44
38.15
47.09
45.24
33.25
13.92
-8.39
-28.36
-40.68
-41.28
-28.69
-4.68
25.99
56.93
81.88
96.36
98.39
88.47
68.82
42.64
13.50
-15.07
-39.70
-57.57
-66.72
-66.28
-56.73
-39.84
-18.49
3.74
23.15
36.78
43.09
42.53
37.55
32.01
30.02
34.46
45.75
61.55
77.57
89.28
93.64
90.04
80.09
66.33
50.85
34.43
16.65
-3.19
-25.13
-47.94
-69.31
-86.55
-97.56
-101.52
-99.15
-92.30
-83.27
-73.78
-64.26
-53.46
-38.78
-17.16
13.71
54.28
102.68
154.61
204.05
244.27
269.46
276.33
265.36
240.95
210.29
181.57
161.12
151.51
151.02
154.83
157.38
154.60
145.01
129.57
110.94
91.75
73.57
56.55
40.04
23.26
5.79
-12.27
-30.47
-47.29
-60.49
-67.29
-65.31
-53.53
-33.23
-8.25
15.97
30.42
28.86
10.59
-18.41
-48.37
-70.72
-81.61
-82.08
-75.54
-65.38
-53.35
-40.34
-26.90
-15.18
-7.93
-7.02
-12.63
-22.92
-34.85
-44.98
-51.15
-53.15
-52.87
-53.26
-55.38
-59.56
-64.94
-69.98
-73.04
-73.43
-71.67
-69.37
-68.24
-69.18
-72.04
-75.51
-77.86
-77.63
-74.40
-68.91
-62.81
-58.03
-56.08
-57.52
-61.40
-65.27
-65.78
-59.83
-45.98
-25.40
-1.81
19.78
34.72
40.52
37.58
28.68
17.94
9.64
7.46
14.12
31.14
58.35
93.57
132.62
169.93
199.83
217.97
222.30
213.29
193.29
165.43
132.64
96.91
59.20
19.82
-20.90
-62.28
-103.13
-141.92
-177.21
-207.96
-233.50
-253.43
-267.34
-274.76
-275.41
-269.65
-258.47
-243.47
-226.43
-208.95
-192.19
-176.71
-162.37
-148.86
-136.01
-123.75
-112.10
-101.01
-90.25
-79.65
-69.04
-58.09
-46.96
-36.27
-26.56
-17.96
-10.08
-2.23
5.76
13.77
21.85
29.57
36.11
40.87
43.50
44.06
43.00
40.87
38.94
39.57
44.43
53.35
64.50
74.82
81.13
84.40
86.06
83.41
76.50
68.27
60.50
54.47
51.27
51.73
56.14
63.25
70.81
76.91
79.74
78.24
72.85
65.19
57.29
50.78
46.05
42.64
40.09
37.51
33.73
28.05
20.60
12.36
4.95
-0.14
-1.83
0.52
6.46
14.58
23.21
30.74
35.92
37.96
36.47
31.67
24.60
16.72
9.51
4.19
1.28
0.51
0.97
1.60
1.67
1.12
0.36
-0.14
-0.12
0.20
0.27
-0.46
-2.21
-4.80
-7.78
-10.74
-13.50
-16.12
-18.70
-21.14
-23.10
-24.19
-24.22
-23.38
-22.12
-20.99
-20.24
-19.78
-19.15
-17.84
-15.50
-11.99
-7.46
-2.21
3.27
8.47
12.79
15.79
17.13
16.84
15.20
12.64
9.39
5.27
-0.32
-8.14
-18.52
-31.07
-44.52
-57.04
-66.85
-72.99
-75.69
-76.35
-76.86
-78.60
-82.10
-86.76
-91.29
-94.18
-94.33
-91.52
-86.41
-80.54
-75.97
-75.53
-82.03
-96.68
-117.59
-139.32
-154.40
-156.10
-141.28
-111.36
-72.38
-32.06
3.59
32.61
57.15
81.83
111.04
146.86
188.58
231.63
268.71
292.04
295.98
278.94
243.84
197.07
142.72
88.03
40.53
5.47
-15.55
-23.93
-22.21
-13.24
-0.28
13.00
23.73
29.76
30.44
26.84
21.36
16.64
14.34
14.62
16.40
18.56
19.86
19.68
18.34
16.84
16.36
17.50
19.97
22.73
24.73
24.90
22.55
17.88
11.17
3.13
-5.40
-13.66
-21.06
-26.27
-28.15
-25.81
-19.01
-8.23
5.26
19.52
32.18
40.97
44.76
43.43
37.45
27.64
14.70
-0.81
-18.29
-36.97
-55.90
-72.83
-84.98
-90.12
-87.29
-77.41
-63.04
-47.55
-34.34
-26.98
-27.57
-36.59
-52.57
-71.75
-88.40
-96.32
-90.93
-67.52
-31.49
6.92
37.46
54.16
56.96
50.36
40.08
30.31
22.25
14.42
5.79
-3.31
-11.12
-15.71
-16.15
-13.17
-8.71
-5.34
-5.51
-9.66
-16.63
-24.24
-30.19
-33.03
-32.79
-30.85
-29.27
-30.27
-34.49
-41.05
-47.71
-52.12
-51.76
-45.26
-32.19
-12.57
13.10
43.46
75.41
103.16
120.23
122.11
108.41
83.60
55.40
31.63
17.06
12.04
13.59
17.66
21.34
23.53
24.36
24.31
23.65
22.34
20.37
18.26
16.81
16.45
16.98
17.17
14.48
6.25
-9.41
-32.12
-58.52
-82.68
-98.31
-101.07
-91.80
-76.11
-61.59
-54.66
-57.57
-67.94
-80.43
-89.90
-93.32
-90.65
-83.39
-72.85
-59.27
-41.90
-20.11
5.58
32.67
58.37
79.64
94.56
102.95
106.21
106.69
106.70
107.62
109.57
111.60
112.17
110.17
105.56
99.38
93.25
88.69
86.43
86.62
89.13
93.86
99.57
104.15
104.35
96.57
78.52
50.89
17.87
-14.06
-38.78
-52.85
-56.51
-52.90
-46.00
-38.68
-31.92
-25.49
-19.06
-13.16
-9.04
-7.83
-9.92
-14.63
-20.71
-26.74
-31.77
-35.55
-38.27
-40.33
-41.92
-43.09
-43.76
-43.87
-43.50
-42.78
-41.85
-40.71
-39.30
-37.58
-35.76
-34.38
-34.17
-35.71
-39.01
-43.35
-47.45
-50.13
-50.61
-49.08
-46.54
-44.41
-44.04
-46.28
-51.40
-58.81
-66.65
-71.62
-69.62
-57.09
-32.99
-0.16
35.09
64.99
83.42
88.52
83.27
73.99
67.43
67.76
75.29
87.16
99.32
108.53
113.58
115.11
114.69
113.92
113.56
113.33
112.36
109.69
104.69
97.24
87.38
74.80
59.82
43.06
25.21
6.92
-11.47
-29.86
-48.02
-65.43
-81.19
-94.28
-104.03
-110.36
-113.52
-113.83
-111.52
-107.01
-101.39
-96.55
-94.62
-97.05
-103.44
-111.28
-117.01
-117.70
-112.80
-104.46
-96.39
-91.90
-92.40
-97.07
-103.87
-111.22
-118.96
-128.34
-140.84
-156.94
-175.41
-193.44
-208.17
-217.92
-222.78
-223.90
-222.62
-219.69
-214.97
-208.03
-198.56
-187.03
-174.60
-162.48
-151.39
-141.50
-132.95
-126.14
-121.95
-120.36
-120.82
-122.11
-122.72
-121.29
-117.04
-110.22
-101.18
-90.22
-75.17
-54.35
-27.92
1.74
31.30
57.88
79.49
96.55
110.48
127.19
150.86
181.84
216.89
251.62
282.66
307.10
324.89
336.41
348.84
367.50
393.07
422.14
450.51
475.96
496.70
514.53
530.60
553.33
587.19
629.73
673.06
708.94
733.23
743.97
745.12
687.01
546.94
338.82
105.85
-109.71
-286.44
-407.72
-490.06
-544.44
-577.19
-584.41
-564.66
-525.54
-477.60
-430.01
-386.53
-348.21
-310.50
-269.84
-218.36
-152.63
-76.11
1.59
67.84
111.21
122.76
102.83
58.79
7.45
-34.81
-59.13
-66.82
-66.61
-68.05
-76.88
-90.20
-100.51
-98.68
-81.02
-51.52
-19.32
6.35
20.62
23.63
20.21
15.71
14.32
17.19
22.58
27.40
29.09
27.26
23.70
21.89
24.70
32.54
42.35
48.30
44.10
25.81
-6.22
-47.29
-90.27
-128.40
-157.36
-176.00
-185.61
-188.38
-186.03
-179.27
-167.91
-151.19
-128.23
-98.52
-62.69
-23.32
14.73
44.96
60.72
57.46
34.06
-6.71
-58.72
-113.81
-163.34
-200.14
-220.00
-222.57
-210.74
-189.34
-163.07
-134.82
-105.17
-73.31
-38.66
-2.12
33.97
67.40
96.86
122.28
144.57
165.02
184.84
204.83
225.26
245.68
265.76
284.02
297.59
303.19
298.51
283.32
259.38
229.65
197.40
167.77
144.87
130.58
124.38
124.46
128.46
133.63
136.96
136.13
133.57
132.14
132.50
132.03
126.53
113.01
91.76
67.38
48.56
49.62
80.77
142.31
223.57
307.88
379.40
427.89
450.10
421.93
336.26
207.74
67.50
-55.90
-148.92
-210.95
-247.01
-263.37
-265.29
-253.26
-229.44
-198.99
-169.06
-145.14
-128.24
-116.35
-107.32
-98.94
-87.48
-72.73
-57.76
-47.30
-44.66
-49.27
-58.99
-71.58
-84.11
-92.85
-97.13
-98.58
-99.96
-103.50
-109.79
-113.64
-113.05
-106.33
-93.00
-76.00
-59.71
-48.56
-45.38
-50.84
-66.57
-93.75
-130.61
-160.51
-170.73
-157.12
-125.46
-102.63
-95.04
-104.21
-131.56
-166.30
-202.92
-240.01
-277.95
-317.81
-341.02
-335.16
-301.10
-250.04
-194.17
-142.37
-99.20
-65.44
-40.07
-21.21
-7.88
-0.88
-0.51
-5.16
-13.40
-23.69
-33.06
-36.82
-29.47
-8.31
24.26
62.05
97.76
124.58
138.87
141.20
135.37
126.17
116.33
106.00
94.61
82.46
70.55
60.19
52.14
46.16
41.29
36.21
29.84
22.34
15.00
9.21
5.80
4.79
5.54
7.23
9.81
13.56
19.06
26.58
35.58
44.62
52.12
56.89
59.01
60.07
62.05
66.86
75.67
88.77
105.41
123.64
140.09
149.00
146.58
131.22
104.96
73.02
42.00
17.08
0.33
-9.46
-14.91
-17.56
-17.65
-14.29
-7.83
-0.75
2.20
-3.49
-20.29
-47.43
-81.11
-115.76
-144.44
-160.66
-159.44
-139.29
-103.92
-62.31
-26.16
-4.79
-0.73
-7.88
-15.08
-11.99
5.36
32.69
60.24
78.25
81.88
70.84
51.44
30.51
11.50
-6.24
-25.39
-47.39
-70.93
-92.41
-107.95
-114.82
-113.58
-107.26
-99.75
-94.30
-91.62
-90.39
-87.90
-81.43
-68.84
-50.02
-26.76
-1.86
21.68
41.69
57.06
68.10
75.89
82.47
89.30
96.91
104.66
110.99
114.09
112.71
106.92
98.05
89.14
83.30
83.10
89.91
103.79
123.57
146.96
171.09
188.50
194.02
185.15
163.54
134.91
107.24
87.82
76.84
71.66
66.50
55.86
37.82
15.64
-4.20
-16.38
-20.38
-20.17
-24.82
-42.97
-78.66
-130.34
-191.40
-252.49
-304.28
-339.80
-352.42
-339.53
-302.82
-247.79
-182.95
-117.89
-61.09
-17.94
10.01
24.60
28.94
26.21
18.77
8.12
-4.46
-17.50
-29.22
-37.91
-42.32
-42.36
-38.50
-31.16
-20.27
-5.42
13.68
36.48
61.55
86.69
109.17
126.70
137.88
142.53
141.67
137.09
130.84
124.65
119.52
115.58
112.72
111.13
111.62
115.35
122.98
133.75
145.32
154.44
158.36
156.09
148.73
138.71
128.42
119.14
110.67
102.01
92.37
81.95
72.09
64.69
61.43
63.08
69.28
78.66
89.50
100.18
109.62
117.16
122.18
123.78
120.79
112.36
98.85
82.37
66.49
55.05
50.64
53.59
62.06
72.98
83.46
91.71
97.05
99.28
98.11
92.95
83.29
69.22
51.54
31.52
10.20
-12.04
-35.32
-59.62
-84.10
-106.98
-125.98
-139.38
-146.82
-149.57
-150.01
-150.66
-153.28
-158.39
-165.33
-172.66
-178.67
-181.85
-181.39
-177.55
-171.65
-165.75
-161.78
-160.76
-162.39
-165.44
-168.57
-171.12
-173.21
-175.25
-177.24
-178.53
-178.14
-175.48
-170.87
-165.32
-159.90
-155.08
-150.57
-145.87
-140.82
-135.89
-131.91
-129.45
-128.36
-127.88
-127.15
-125.86
-124.32
-123.15
-122.63
-122.11
-119.93
-113.85
-101.87
-83.11
-58.34
-29.99
-1.52
23.70
43.30
56.56
64.23
67.79
68.69
67.80
65.46
61.80
57.17
52.20
47.44
43.19
39.20
35.03
30.35
25.33
20.76
17.76
17.38
19.95
24.99
31.19
36.88
40.64
41.85
40.96
39.28
38.47
39.77
43.56
49.07
54.77
58.96
60.35
58.65
54.44
48.96
43.48
38.87
35.36
32.68
30.49
28.71
27.64
27.67
28.88
30.83
32.69
33.63
33.32
32.06
30.55
29.57
29.57
30.73
33.14
36.97
42.42
49.49
57.54
65.20
70.68
72.54
70.43
65.55
60.20
57.04
57.88
63.02
71.27
80.44
88.44
93.93
96.71
97.40
97.01
96.40
96.03
96.02
96.26
96.58
96.96
97.45
98.23
99.40
100.73
101.49
100.61
96.91
89.64
78.93
65.86
52.24
40.08
30.94
25.34
22.49
20.19
15.27
4.38
-14.98
-43.63
-80.39
-122.53
-166.78
-210.51
-252.59
-293.70
-336.09
-382.61
-435.25
-493.57
-553.57
-607.82
-647.38
-664.69
-656.35
-624.57
-576.16
-519.62
-462.01
-406.84
-354.21
-302.53
-250.68
-199.17
-149.90
-104.80
-64.34
-27.12
9.71
48.99
92.12
138.39
185.50
230.74
272.87
312.61
351.66
390.69
427.68
457.97
476.39
480.17
470.51
451.86
429.02
403.82
374.36
336.85
289.47
235.28
181.94
137.78
106.87
86.09
66.47
38.59
-1.63
-49.81
-94.49
-122.14
-123.21
-96.00
-47.49
9.90
63.58
104.73
130.00
140.20
137.71
124.68
103.41
78.25
57.10
50.27
66.19
106.35
162.18
216.63
250.97
253.43
224.93
178.52
132.56
101.39
88.81
87.73
85.15
69.65
36.76
-9.87
-61.60
-109.70
-149.31
-180.71
-208.05
-236.97
-272.02
-314.68
-362.69
-410.28
-449.61
-473.08
-476.06
-458.32
-423.85
-378.78
-328.75
-277.16
-225.18
-172.85
-120.17
-68.05
-17.99
28.58
70.13
105.37
132.64
149.98
155.54
148.52
129.59
101.30
68.06
35.03
7.53
-10.50
-17.45
-14.54
-5.45
5.12
13.17
16.82
16.64
15.19
15.69
20.81
31.65
47.06
64.01
78.58
87.17
87.87
81.33
70.02
56.84
43.43
28.72
9.62
-17.03
-52.23
-93.65
-135.98
-173.12
-200.55
-216.33
-221.35
-217.85
-207.99
-193.14
-173.77
-150.01
-122.32
-91.84
-60.50
-30.81
-5.17
14.87
29.27
39.82
49.51
61.41
77.58
98.56
123.76
151.53
179.21
203.07
218.63
222.10
212.55
193.33
171.84
157.18
156.41
171.64
198.93
230.21
256.38
270.74
270.47
256.25
230.62
196.26
155.39
110.24
63.86
20.48
-15.08
-39.00
-50.10
-50.43
-44.72
-38.23
-34.42
-33.56
-32.91
-28.75
-18.79
-3.70
13.39
27.96
36.46
38.05
35.01
31.62
31.90
37.72
47.85
59.75
69.91
75.63
75.95
71.82
65.70
60.49
58.29
59.38
63.74
70.28
78.11
87.74
101.32
121.60
149.75
183.60
217.44
245.95
264.80
272.28
269.46
258.87
242.92
222.95
199.22
161.87
107.46
38.82
-35.48
-105.00
-162.07
-203.96
-232.09
-248.75
-259.41
-267.13
-274.78
-285.60
-302.91
-328.83
-362.69
-398.96
-429.22
-445.37
-441.20
-416.54
-377.22
-332.25
-290.03
-255.16
-227.61
-204.38
-182.02
-156.81
-126.17
-88.28
-42.15
11.32
68.15
121.12
161.19
180.49
176.31
152.25
117.27
82.62
58.07
49.39
57.51
79.42
109.93
143.57
175.14
199.84
213.41
212.85
197.60
170.72
138.84
110.77
94.61
94.53
109.10
132.33
156.73
176.66
190.26
198.53
202.83
202.47
194.14
173.39
137.45
86.88
25.98
-38.48
-99.28
-149.88
-185.06
-201.27
-196.73
-172.18
-131.29
-80.49
-28.07
17.48
49.22
62.99
57.64
34.59
-2.95
-50.36
-101.61
-149.40
-185.73
-204.01
-201.27
-180.90
-152.22
-127.56
-116.90
-122.86
-139.30
-154.34
-156.60
-141.60
-113.42
-81.41
-54.27
-34.43
-16.61
8.43
48.23
103.71
168.52
232.30
285.58
323.06
344.12
350.86
345.20
327.72
297.66
254.21
197.94
131.76
61.76
-3.37
-53.63
-81.29
-83.95
-66.76
-41.45
-21.95
-19.31
-37.76
-74.24
-121.65
-172.58
-221.42
-264.25
-297.39
-316.64
-318.55
-302.39
-271.24
-231.08
-188.08
-146.08
-106.05
-67.26
-29.17
7.37
40.64
69.44
94.16
116.87
140.14
165.48
192.69
220.11
245.17
265.48
279.46
286.75
288.43
286.48
282.94
278.87
273.75
265.78
252.93
234.47
211.57
187.06
163.83
143.09
123.40
101.06
72.06
34.84
-7.75
-48.38
-77.52
-87.05
-73.51
-39.22
8.78
61.79
112.45
156.28
191.29
216.46
230.36
230.98
216.91
188.64
149.36
104.56
60.74
24.14
-0.37
-9.76
-3.49
16.33
44.96
75.99
102.71
119.85
124.63
117.02
99.08
73.88
44.62
14.14
-15.24
-41.93
-65.16
-85.20
-103.37
-121.68
-142.08
-165.76
-192.53
-220.87
-248.61
-273.94
-296.18
-316.52
-337.92
-364.35
-399.11
-442.66
-491.01
-535.61
-565.41
-570.62
-546.36
-494.65
-423.38
-343.06
-262.76
-187.42
-117.54
-50.70
16.34
86.13
159.90
237.21
315.66
390.72
456.18
505.83
535.37
544.50
537.70
521.85
503.43
486.99
474.36
465.21
458.14
451.16
442.26
429.99
412.73
388.96
358.48
322.60
283.79
244.77
206.64
169.29
133.18
97.94
62.72
27.66
-6.14
-37.33
-65.26
-92.88
-123.74
-156.85
-191.55
-228.23
-265.58
-301.45
-334.18
-363.55
-395.93
-437.38
-483.35
-529.83
-576.59
-622.57
-666.93
-709.16
-748.19
-789.56
-836.07
-875.60
-902.49
-922.62
-942.60
-966.12
-991.13
-1010.34
-1025.13
-1037.46
-1034.65
-1013.76
-984.00
-951.35
-916.32
-875.66
-762.65
-543.85
-321.54
-152.60
-31.51
39.16
64.24
56.33
33.34
14.03
2.92
-0.15
17.52
58.19
110.98
166.71
219.92
269.11
315.14
351.33
372.28
388.29
407.26
430.66
460.51
496.65
533.91
561.94
564.06
529.21
465.59
388.57
312.70
249.85
204.00
171.01
143.11
112.23
76.41
42.99
18.58
3.82
-4.80
-12.38
-22.02
-32.85
-41.80
-45.23
-40.22
-27.53
-11.02
5.51
20.14
33.28
46.92
63.10
82.31
102.97
121.89
135.63
142.16
141.90
137.72
133.73
133.54
138.74
148.53
160.24
170.80
178.31
182.84
186.59
193.13
206.31
228.78
260.50
297.67
332.47
354.28
352.27
318.84
253.11
162.31
60.50
-35.29
-110.10
-155.34
-170.39
-161.34
-137.63
-108.25
-79.29
-53.36
-30.73
-10.77
6.93
22.56
36.31
49.02
61.85
75.85
91.19
106.97
121.58
133.16
140.70
144.11
144.39
143.11
142.18
143.50
148.72
159.31
176.89
204.58
245.68
302.21
373.03
452.60
531.53
599.01
646.28
669.54
672.62
663.16
648.96
634.66
620.86
605.58
586.52
562.76
534.80
506.52
480.47
456.78
433.19
406.65
375.36
339.49
300.88
261.58
226.39
197.94
176.16
158.46
141.56
123.66
105.26
88.51
53.29
-11.09
-105.39
-218.40
-332.30
-431.28
-506.40
-555.58
-581.32
-588.47
-579.41
-557.52
-527.27
-493.62
-462.07
-436.15
-417.24
-405.29
-400.12
-399.31
-401.57
-404.91
-409.02
-414.99
-423.69
-434.33
-443.42
-445.14
-431.43
-397.00
-342.20
-274.25
-204.67
-144.52
-100.54
-73.55
-59.83
-53.30
-49.26
-45.72
-43.10
-42.37
-43.37
-44.78
-44.98
-43.35
-40.25
-36.88
-34.59
-34.03
-34.79
-35.52
-34.85
-31.59
-25.69
-18.24
-10.89
-5.03
-1.44
0.07
0.42
0.74
1.98
4.47
7.98
12.13
16.78
22.16
28.78
37.02
46.65
56.79
65.75
71.44
72.22
67.33
57.28
43.66
28.59
14.03
1.54
-8.27
-15.45
-20.15
-22.34
-21.48
-16.35
-5.30
11.60
34.15
60.93
89.06
114.45
132.51
139.57
134.12
117.66
94.38
70.16
50.29
37.90
33.17
33.94
37.18
40.53
43.21
45.74
49.22
54.06
59.49
63.73
64.67
61.05
52.95
41.71
29.05
16.43
4.53
-6.40
-16.49
-25.85
-34.47
-42.17
-48.57
-53.04
-54.31
-50.62
-39.89
-21.37
3.36
30.45
55.13
74.04
86.88
96.84
109.06
128.09
154.46
183.64
207.43
217.41
208.75
182.09
143.33
99.08
57.76
26.06
6.73
-2.08
-5.34
-7.22
-9.85
-13.68
-19.48
-28.65
-43.06
-63.32
-87.28
-110.25
-127.19
-135.70
-137.49
-136.92
-137.22
-138.01
-134.59
-120.68
-92.33
-51.06
-4.21
37.85
65.92
75.42
66.90
44.65
14.42
-18.48
-50.11
-78.42
-103.29
-125.89
-147.51
-168.66
-188.67
-206.01
-218.88
-225.77
-225.68
-218.21
-203.35
-181.63
-154.48
-124.50
-95.08
-69.62
-50.29
-37.19
-28.95
-23.23
-17.74
-10.81
-1.47
10.98
27.37
48.57
74.55
102.32
125.59
135.79
125.13
90.12
33.52
-36.22
-107.94
-167.73
-204.59
-213.09
-194.78
-156.58
-107.07
-53.38
-0.24
49.17
92.20
125.83
148.00
158.35
158.78
153.10
145.40
138.74
134.35
131.70
128.29
121.92
111.08
95.90
78.05
59.88
43.34
29.26
17.24
5.21
-8.80
-25.93
-45.94
-67.04
-86.46
-101.25
-109.33
-106.48
-93.24
-72.74
-49.35
-27.11
-8.28
7.08
20.72
34.73
49.99
65.00
77.14
83.45
81.90
72.72
58.84
44.77
35.04
31.22
31.13
30.46
24.12
7.40
-21.97
-62.66
-109.61
-155.04
-190.08
-207.11
-201.58
-174.79
-135.39
-97.25
-74.56
-75.83
-100.30
-138.10
-174.29
-192.31
-177.37
-125.10
-44.86
44.34
123.91
183.77
223.32
246.87
258.31
258.50
246.30
222.29
191.08
160.49
138.24
127.94
128.02
133.10
136.79
134.25
124.41
110.13
96.79
89.59
91.29
101.21
115.37
127.47
130.45
118.92
91.53
52.34
9.46
-28.08
-53.39
-64.50
-64.13
-57.71
-50.54
-45.64
-42.98
-40.88
-38.06
-34.49
-31.44
-30.84
-34.38
-42.75
-55.51
-70.31
-83.99
-93.59
-97.18
-94.16
-85.45
-72.68
-55.92
-37.26
-17.52
2.72
22.34
38.87
50.98
57.57
58.60
54.95
48.31
40.78
33.81
28.01
22.75
17.62
12.16
6.16
-0.41
-7.53
-15.01
-22.94
-28.64
-33.35
-37.90
-42.63
-47.35
-51.70
-55.30
-57.61
-58.24
-57.00
-54.22
-49.96
-44.55
-38.66
-33.19
-29.16
-27.17
-27.25
-28.78
-31.09
-33.10
-34.12
-34.21
-34.11
-34.86
-37.22
-41.21
-45.99
-50.48
-53.54
-54.54
-53.88
-52.62
-52.03
-53.20
-56.80
-63.24
-72.50
-83.24
-92.38
-95.53
-88.44
-69.17
-39.72
-5.81
25.08
46.74
56.66
56.51
50.38
42.45
35.14
28.58
22.17
15.52
9.28
4.66
2.48
2.48
3.32
3.31
0.94
-4.09
-11.21
-19.12
-26.45
-32.22
-36.04
-38.09
-38.71
-38.11
-36.16
-32.71
-27.53
-20.51
-11.64
-0.99
11.15
24.55
38.70
52.91
65.85
75.94
81.52
81.71
76.50
66.94
54.79
41.94
30.07
19.86
11.57
5.12
0.76
-0.77
1.57
8.96
21.39
39.30
61.82
85.94
106.40
116.68
110.93
86.33
44.94
-6.34
-57.13
-96.71
-117.06
-114.99
-92.77
-57.06
-16.76
19.90
47.13
62.91
68.28
66.25
60.07
52.16
43.84
35.84
29.15
24.79
23.98
26.09
29.60
32.52
33.25
31.20
27.12
22.65
19.46
18.71
20.42
23.81
27.55
30.31
31.41
30.96
29.75
28.87
29.33
31.54
35.26
39.95
44.02
46.18
45.73
42.68
37.75
32.12
26.93
22.99
20.75
20.22
21.27
23.37
25.38
25.47
21.53
12.09
-2.86
-21.48
-40.88
-58.12
-71.36
-80.20
-85.08
-86.45
-84.42
-79.06
-71.02
-62.18
-55.07
-51.70
-52.59
-56.62
-61.73
-66.00
-68.41
-68.84
-68.09
-67.52
-68.64
-72.82
-81.18
-94.40
-112.27
-133.20
-153.88
-170.06
-177.80
-174.71
-161.07
-139.44
-113.81
-87.82
-63.75
-42.91
-27.43
-21.75
-31.79
-61.67
-109.63
-166.47
-217.57
-248.35
-250.10
-221.52
-170.24
-109.15
-50.38
-0.43
40.88
78.05
116.45
159.54
207.66
257.85
304.73
341.92
364.01
368.34
356.66
335.97
316.28
306.72
311.60
329.24
353.78
378.29
397.09
405.65
400.49
379.43
342.00
290.69
231.90
174.55
126.45
90.42
62.49
36.09
6.94
-24.22
-53.00
-75.28
-90.55
-102.88
-118.76
-144.69
-182.23
-226.73
-269.52
-302.11
-318.81
-317.11
-297.34
-255.27
-194.75
-128.38
-70.49
-27.66
2.55
26.41
47.82
65.60
75.97
72.21
51.64
17.96
-20.19
-53.35
-72.24
-72.42
-56.74
-32.37
-8.17
10.62
24.03
34.59
44.74
54.08
60.22
59.57
49.91
29.94
0.45
-35.54
-74.32
-115.29
-160.04
-205.70
-251.08
-294.77
-335.68
-372.32
-401.94
-407.84
-382.39
-329.08
-258.45
-181.75
-104.42
-28.03
44.71
107.91
152.67
169.32
155.65
122.99
86.68
62.47
60.20
79.86
114.35
153.12
185.55
201.80
200.33
186.16
166.92
151.13
138.62
129.20
124.78
127.35
137.49
153.95
171.85
180.63
171.13
137.83
82.72
13.22
-62.28
-137.09
-205.87
-265.44
-305.16
-314.78
-292.38
-245.39
-186.70
-128.49
-78.40
-37.90
-5.66
19.42
40.20
57.59
73.71
92.17
116.90
149.54
189.96
234.57
269.51
281.00
260.68
212.12
149.37
91.84
46.80
16.01
-3.19
-15.79
-25.73
-37.70
-55.84
-83.06
-120.47
-166.66
-215.03
-255.39
-275.81
-266.66
-225.72
-159.31
-80.83
-6.86
47.61
75.97
76.88
59.25
38.68
27.43
29.25
40.73
56.14
70.92
83.85
95.71
108.03
120.76
131.76
138.66
140.79
139.70
137.46
135.74
135.35
136.73
139.55
142.42
143.95
143.89
143.39
143.72
143.27
140.54
135.34
128.06
118.30
104.57
84.66
60.85
34.45
2.00
-38.27
-84.65
-132.79
-178.58
-219.77
-255.54
-286.21
-312.84
-342.60
-379.90
-423.81
-469.04
-509.83
-542.42
-564.89
-577.10
-543.75
-450.81
-311.27
-157.39
-17.78
94.65
179.29
241.09
282.33
309.66
320.16
311.65
286.31
249.81
207.33
160.59
116.11
79.10
53.56
35.28
19.41
4.23
-8.72
-16.97
-19.12
-15.14
-6.90
3.64
11.36
13.25
9.80
3.54
-2.65
-6.85
-8.18
-7.27
-5.01
-4.06
-6.11
-10.93
-17.52
-24.53
-30.66
-34.97
-37.21
-37.34
-36.25
-36.75
-37.75
-38.75
-39.33
-38.54
-35.72
-30.55
-23.24
-14.76
-6.68
-0.57
1.58
-1.48
-8.97
-19.66
-32.20
-45.39
-58.69
-71.99
-85.34
-99.20
-114.07
-128.96
-143.54
-156.90
-166.92
-169.79
-160.65
-135.58
-93.59
-37.11
32.26
107.31
179.46
241.64
289.87
323.03
341.29
345.08
323.25
272.91
200.06
118.29
41.70
-20.83
-66.66
-97.86
-117.97
-131.16
-136.92
-133.60
-119.45
-93.33
-54.43
-1.47
61.04
125.53
181.74
220.14
232.52
215.10
170.37
106.53
35.22
-31.91
-85.23
-118.26
-127.39
-113.57
-81.78
-39.54
3.51
38.02
60.45
68.00
62.14
47.77
29.96
12.63
-0.88
-9.29
-12.90
-13.42
-12.17
-9.06
-2.85
7.66
23.30
45.54
74.23
108.74
141.19
167.39
187.22
202.70
215.52
214.70
194.37
155.12
104.69
51.90
3.90
-34.09
-57.26
-67.10
-64.15
-46.37
-12.54
37.71
100.98
164.88
214.39
236.07
224.42
185.98
136.62
91.95
62.87
50.84
47.50
45.24
39.31
27.14
8.55
-15.60
-46.92
-80.30
-111.84
-138.02
-155.75
-163.79
-163.88
-157.92
-146.56
-138.88
-132.08
-124.86
-117.55
-110.60
-104.84
-104.30
-113.17
-125.84
-138.89
-147.61
-150.82
-149.66
-146.09
-142.34
-143.99
-155.68
-179.49
-215.74
-261.24
-312.92
-366.25
-414.48
-428.83
-391.56
-305.84
-195.12
-88.19
-2.45
57.57
96.67
122.96
143.10
156.75
161.56
156.98
145.76
133.30
123.89
119.25
118.62
119.94
118.19
110.15
96.03
79.17
64.16
54.01
49.16
47.93
47.61
44.05
34.90
20.44
3.51
-12.16
-23.84
-30.58
-33.00
-32.29
-30.54
-28.00
-23.61
-15.24
-1.02
19.55
45.18
73.27
101.03
124.72
143.15
156.56
166.02
172.94
178.72
184.65
191.52
198.79
203.85
202.44
190.00
164.22
127.02
84.51
44.93
15.19
-2.08
-8.95
-10.49
-12.05
-16.93
-25.83
-37.83
-51.73
-67.07
-84.03
-101.95
-120.16
-137.13
-151.28
-161.75
-169.32
-176.05
-183.86
-192.75
-199.76
-199.75
-187.56
-161.26
-123.87
-82.79
-46.79
-22.30
-11.16
-10.17
-13.52
-15.55
-12.57
-3.21
12.47
33.74
59.04
85.00
106.40
116.73
112.37
94.00
66.99
39.35
18.34
7.46
5.57
8.46
11.60
12.48
10.96
8.37
6.20
4.85
3.96
2.83
0.73
-3.17
-9.55
-18.12
-27.02
-32.52
-30.23
-17.01
6.73
36.72
66.77
90.93
105.60
109.59
102.99
86.32
60.69
28.85
-4.02
-31.24
-47.33
-50.66
-44.49
-35.45
-29.84
-30.62
-36.73
-44.35
-50.15
-52.30
-50.54
-45.17
-35.98
-22.31
-3.94
17.97
40.28
60.09
74.84
83.57
87.13
87.60
87.52
88.99
93.17
100.16
108.67
115.86
117.77
110.49
91.96
63.50
29.89
-2.19
-26.59
-40.47
-44.63
-42.49
-37.96
-33.53
-29.54
-25.11
-19.50
-13.05
-7.06
-2.93
-1.14
-0.95
-0.94
0.31
3.46
8.04
12.94
16.93
19.28
20.04
20.02
20.22
21.33
23.32
25.36
26.32
25.06
21.01
14.28
5.63
-3.96
-13.59
-22.38
-30.45
-37.87
-44.65
-50.51
-54.92
-57.37
-57.64
-56.04
-53.41
-51.21
-49.98
-49.99
-50.81
-51.58
-51.43
-49.96
-47.50
-45.10
-44.05
-45.12
-48.35
-52.73
-56.73
-59.04
-59.02
-57.20
-54.91
-53.81
-55.13
-59.67
-67.46
-77.55
-87.68
-94.27
-93.30
-81.80
-59.65
-30.24
0.33
25.76
42.05
48.93
49.28
47.00
44.67
42.65
39.86
35.24
29.38
24.53
23.48
27.97
38.35
53.54
71.72
90.33
106.33
116.30
117.21
107.75
89.38
66.20
43.63
26.26
16.13
12.60
13.33
16.01
19.29
22.56
25.22
26.01
23.28
16.00
4.69
-8.31
-20.11
-28.33
-32.25
-33.04
-33.11
-34.87
-39.79
-48.16
-58.26
-66.57
-68.51
-60.33
-40.86
-13.09
16.53
40.28
51.93
50.02
38.18
22.94
10.18
2.74
-0.52
-2.62
-6.01
-11.52
-17.49
-21.07
-20.51
-16.70
-12.31
-11.02
-15.87
-28.49
-49.68
-77.78
-109.01
-138.37
-161.83
-173.15
-170.05
-154.27
-126.82
-96.31
-73.54
-65.28
-70.92
-85.32
-102.81
-120.48
-137.57
-154.14
-170.27
-184.32
-195.42
-201.53
-202.91
-201.58
-200.55
-201.88
-206.08
-212.63
-219.59
-224.43
-224.94
-220.31
-212.42
-203.55
-195.41
-188.82
-183.73
-179.22
-174.65
-169.22
-162.76
-155.66
-148.32
-140.77
-132.58
-122.82
-110.34
-94.72
-75.66
-53.31
-28.40
-1.82
25.61
53.24
81.24
109.77
137.52
163.66
187.98
210.08
229.56
246.00
258.88
269.74
279.41
284.49
282.92
275.12
261.74
243.79
222.54
199.52
180.55
169.95
163.05
157.24
154.20
154.96
160.14
169.94
184.24
209.46
249.49
293.94
336.08
376.24
414.17
449.26
480.62
507.15
536.49
573.28
604.09
620.66
624.58
617.38
600.73
576.53
491.44
321.11
153.07
24.12
-82.93
-172.22
-246.74
-308.73
-360.00
-402.13
-427.73
-432.41
-429.97
-429.18
-429.32
-429.96
-430.81
-431.60
-432.11
-425.44
-407.16
-386.99
-370.95
-357.83
-346.65
-336.59
-326.91
-317.04
-302.47
-280.48
-257.45
-237.52
-220.14
-204.68
-190.27
-175.99
-161.04
-142.98
-120.66
-97.66
-76.50
-57.27
-39.57
-22.52
-5.00
13.96
35.43
59.49
84.16
107.78
129.92
150.80
171.20
192.21
214.99
240.67
270.20
303.93
340.70
377.25
408.22
427.45
430.12
414.64
383.43
341.90
296.31
251.71
211.09
175.80
146.66
124.75
111.09
105.91
107.94
114.75
123.82
133.90
145.37
159.68
178.04
200.23
224.23
246.88
265.06
276.70
281.24
279.15
271.20
257.73
238.36
212.32
179.03
138.55
91.79
40.60
-12.17
-62.32
-104.64
-133.91
-146.58
-142.69
-126.43
-105.05
-86.50
-76.47
-76.99
-86.46
-101.09
-117.12
-132.47
-147.22
-163.00
-181.43
-202.70
-224.70
-243.12
-252.51
-247.86
-226.39
-188.25
-136.07
-73.48
-3.61
71.33
149.13
226.10
296.21
351.90
386.65
397.50
386.65
360.76
328.22
295.95
267.30
241.59
216.23
189.14
160.23
131.72
106.60
86.98
73.00
62.96
54.24
44.59
33.00
19.74
5.95
-7.14
-19.09
-30.43
-42.60
-57.41
-76.16
-99.25
-125.95
-154.69
-183.84
-212.27
-239.68
-266.64
-294.17
-323.29
-354.93
-390.08
-429.45
-472.84
-518.25
-561.39
-596.40
-617.48
-621.32
-608.49
-583.37
-552.19
-520.53
-491.55
-465.59
-441.20
-416.49
-390.40
-362.77
-333.85
-303.70
-272.01
-238.41
-203.13
-167.29
-132.32
-100.04
-72.23
-50.08
-33.88
-23.06
-16.37
-12.39
-10.03
-7.56
-3.78
1.65
8.28
15.42
22.83
31.00
40.87
53.21
70.44
93.76
122.24
152.91
181.96
206.83
227.17
244.60
261.58
283.89
315.52
356.82
404.35
452.47
496.49
534.07
564.95
590.01
615.35
646.66
687.01
735.28
786.26
832.71
866.97
882.42
845.13
736.38
559.84
344.01
128.37
-56.28
-197.22
-296.38
-362.38
-403.86
-422.61
-419.68
-399.38
-370.21
-343.68
-327.93
-324.32
-327.61
-328.69
-315.90
-283.22
-234.00
-180.68
-138.73
-118.76
-122.23
-142.50
-167.99
-188.34
-196.79
-190.84
-171.70
-142.58
-107.38
-70.83
-39.51
-20.98
-18.87
-31.09
-50.46
-68.28
-78.10
-77.70
-69.13
-56.72
-44.39
-33.68
-24.11
-14.84
-5.93
1.60
6.78
9.54
10.73
11.86
14.54
19.65
26.99
35.40
43.48
50.15
55.06
58.57
61.29
63.90
66.59
68.92
70.01
69.08
65.78
60.60
54.73
49.37
45.80
44.91
46.93
51.50
57.88
65.37
73.46
82.04
90.52
98.66
106.17
112.75
118.08
121.93
124.33
125.68
126.73
127.41
127.95
128.42
128.68
128.28
126.41
121.93
112.99
103.58
94.98
87.96
82.80
79.31
76.88
74.75
72.34
69.50
66.64
63.60
60.49
57.16
52.90
46.55
36.89
23.19
5.62
-14.54
-36.01
-57.30
-77.53
-96.96
-116.85
-138.81
-163.93
-191.95
-221.15
-249.31
-274.07
-294.02
-309.28
-321.42
-332.98
-346.93
-365.84
-390.99
-421.46
-452.94
-478.10
-488.30
-476.65
-441.02
-385.77
-320.72
-258.03
-208.22
-176.98
-164.38
-166.33
-177.24
-192.25
-208.33
-223.78
-237.14
-246.13
-247.47
-237.70
-214.61
-178.50
-132.81
-83.22
-35.91
4.48
36.19
60.21
78.89
94.20
106.36
113.75
114.24
106.94
93.35
77.55
64.96
60.41
66.57
83.74
110.47
144.83
184.92
228.36
271.41
308.66
333.93
342.05
330.79
301.29
257.02
201.77
138.46
69.59
-0.87
-65.89
-115.95
-141.88
-139.12
-110.73
-67.53
-24.90
2.52
5.74
-15.99
-55.71
-102.21
-144.41
-174.98
-191.76
-197.07
-195.49
-191.45
-187.78
-185.57
-185.11
-186.95
-192.09
-201.40
-214.56
-229.50
-242.72
-250.47
-250.20
-241.40
-225.63
-205.73
-184.54
-163.99
-144.75
-126.40
-108.00
-88.71
-68.13
-46.58
-24.74
-3.49
16.30
34.08
49.76
63.87
77.55
92.44
110.12
131.60
156.78
184.51
212.93
240.12
265.04
287.94
310.42
334.67
362.73
395.96
434.90
478.59
524.15
566.46
598.58
613.26
604.88
571.27
515.19
444.35
368.97
298.66
239.80
194.45
161.60
139.37
126.58
123.27
130.21
145.69
164.04
176.65
174.96
155.61
122.14
83.29
48.97
27.05
18.10
15.84
11.38
-2.49
-25.21
-49.98
-67.58
-70.65
-54.12
-19.33
27.62
79.59
129.92
177.55
223.24
266.16
302.62
329.74
342.54
336.08
308.87
262.10
204.51
146.96
98.16
39.52
-37.44
-129.62
-223.87
-292.06
-335.99
-362.92
-378.31
-388.30
-393.31
-387.51
-366.16
-329.03
-279.55
-226.60
-181.35
-153.51
-147.46
-159.41
-177.58
-187.54
-188.87
-185.34
-181.76
-177.34
-169.62
-155.26
-132.94
-102.28
-66.72
-32.40
-3.50
17.70
33.50
48.71
68.41
95.78
132.25
174.00
211.93
235.60
235.79
208.81
157.67
91.31
16.90
-51.33
-99.34
-120.45
-117.30
-98.57
-72.47
-45.06
-16.92
11.24
37.66
58.18
67.71
62.56
40.49
2.25
-47.27
-100.49
-150.17
-190.82
-220.80
-241.61
-255.87
-265.52
-271.28
-273.54
-273.29
-272.53
-272.38
-272.29
-269.25
-258.84
-237.37
-204.20
-163.44
-122.43
-89.07
-67.93
-59.57
-59.57
-62.90
-65.63
-65.81
-63.14
-57.71
-49.72
-39.16
-26.43
-12.89
-0.87
7.19
9.47
5.46
-3.54
-15.48
-28.17
-39.90
-49.85
-58.04
-64.75
-69.74
-74.99
-80.42
-85.26
-88.57
-89.72
-88.59
-85.54
-81.17
-76.00
-70.41
-64.14
-57.02
-49.03
-40.39
-31.43
-22.52
-13.87
-5.52
2.53
10.58
18.65
26.63
34.39
41.97
49.81
58.64
69.27
82.23
97.68
115.34
134.54
154.53
174.81
195.26
216.09
237.72
260.71
285.70
313.44
343.80
375.04
403.58
424.79
434.44
430.36
413.40
387.16
357.45
329.43
306.02
287.43
272.23
258.53
244.99
230.96
215.95
200.77
185.80
170.99
155.78
139.88
123.17
105.85
88.19
70.45
54.87
43.59
38.36
39.70
48.01
63.58
86.95
118.93
147.31
162.57
158.29
133.95
94.30
47.34
-0.06
-43.90
-82.84
-117.15
-145.53
-166.82
-176.88
-177.81
-172.34
-163.33
-153.15
-143.76
-136.68
-131.41
-127.01
-122.40
-117.35
-111.68
-106.37
-102.61
-101.92
-105.63
-113.26
-123.13
-132.74
-140.17
-144.12
-144.74
-143.41
-142.08
-142.37
-144.63
-148.42
-153.16
-159.02
-166.60
-176.88
-190.63
-207.95
-228.43
-251.48
-277.49
-307.80
-343.70
-384.24
-424.83
-457.24
-471.87
-461.26
-423.10
-361.30
-284.71
-203.99
-128.37
-64.07
-13.61
23.59
50.51
71.81
93.17
120.14
156.25
201.06
249.24
291.89
319.51
325.85
310.90
281.08
246.93
218.79
202.62
197.86
198.20
194.85
180.85
154.56
120.56
88.03
66.97
63.91
79.16
106.54
135.81
157.13
165.38
161.74
152.36
144.77
143.99
150.77
162.23
174.48
185.02
193.59
200.70
205.88
206.59
198.87
179.73
149.31
111.53
72.79
39.34
14.74
-1.01
-10.56
-17.30
-23.50
-29.82
-35.88
-41.36
-46.89
-53.96
-64.37
-79.63
-100.51
-126.98
-158.45
-193.80
-231.33
-269.33
-306.63
-343.18
-379.73
-416.64
-452.17
-481.68
-498.58
-496.38
-471.62
-425.48
-363.49
-293.38
-222.68
-157.04
-100.07
-54.42
-22.46
-6.25
-6.24
-19.92
-41.49
-63.11
-77.60
-81.11
-74.56
-62.95
-52.55
-47.41
-47.10
-47.08
-41.44
-26.72
-4.39
19.36
36.55
41.10
31.87
13.00
-8.19
-24.21
-30.06
-24.45
-9.61
10.11
29.90
46.27
58.40
68.39
80.20
97.49
121.06
147.78
171.34
185.02
184.68
170.64
147.18
120.35
95.21
74.32
57.82
44.68
34.16
26.45
22.43
22.85
27.81
36.46
47.32
58.84
69.79
79.60
88.53
97.45
107.38
118.86
131.29
142.77
150.64
152.54
147.36
135.85
120.22
103.17
86.83
72.16
58.99
46.58
34.05
20.55
5.42
-11.84
-31.12
-51.33
-70.23
-85.00
-92.99
-92.69
-84.06
-68.32
-47.32
-23.00
2.77
27.94
50.10
66.59
75.21
75.01
66.85
53.23
37.35
21.99
8.46
-3.62
-15.74
-29.42
-45.08
-61.59
-76.52
-87.11
-91.27
-88.14
-78.09
-62.21
-41.84
-18.32
6.85
31.75
54.00
71.09
80.87
82.24
75.54
62.40
45.39
27.33
10.77
-2.40
-10.99
-14.54
-13.08
-7.00
3.03
16.07
31.00
46.41
60.84
72.89
81.30
85.08
83.41
75.74
61.87
42.18
17.82
-9.29
-36.54
-61.00
-79.91
-91.16
-93.57
-87.07
-72.67
-52.20
-28.01
-2.63
21.54
42.43
58.55
68.98
73.46
72.24
65.97
55.65
42.49
27.94
13.61
1.21
-7.81
-12.36
-12.17
-7.90
-0.96
6.75
13.41
17.72
19.21
18.15
15.44
12.18
9.30
7.34
6.38
6.13
6.08
5.75
4.79
3.13
1.09
-0.71
-1.43
-0.24
3.38
9.49
17.59
26.76
35.98
44.49
51.90
58.25
63.71
68.36
72.08
74.68
76.02
76.34
76.22
76.43
77.70
80.39
84.43
89.48
95.12
100.89
106.35
111.08
114.59
116.43
116.13
113.34
107.73
98.98
86.89
71.56
53.49
33.72
13.59
-5.50
-22.39
-36.42
-47.36
-55.35
-60.61
-63.45
-64.31
-63.83
-62.90
-62.60
-64.00
-67.94
-74.88
-84.75
-97.09
-111.09
-125.79
-140.20
-153.34
-164.44
-172.89
-178.32
-180.56
-179.62
-175.58
-168.54
-158.73
-146.52
-132.53
-117.59
-102.73
-88.95
-77.04
-67.39
-59.92
-54.14
-49.41
-45.18
-41.13
-37.28
-33.78
-30.83
-28.46
-26.54
-24.82
-23.07
-21.18
-19.09
-16.73
-13.91
-10.42
-6.08
-0.90
4.90
10.93
16.79
22.28
27.32
32.05
36.53
40.69
44.26
46.95
48.55
49.07
48.70
47.58
45.69
42.82
38.68
33.14
26.34
18.70
10.80
3.08
-4.20
-11.04
-17.58
-23.89
-29.89
-35.23
-39.37
-41.78
-42.09
-40.36
-36.95
-32.46
-27.42
-22.14
-16.70
-11.16
-5.79
-1.21
1.78
2.45
0.39
-4.36
-11.25
-19.34
-27.27
-33.26
-35.11
-30.35
-16.69
7.14
40.50
80.30
121.32
157.34
182.91
194.96
193.54
181.35
162.42
140.53
118.26
96.96
77.34
60.10
46.14
36.19
30.35
27.65
26.35
24.46
20.40
13.38
3.53
-8.48
-21.68
-35.16
-48.23
-60.45
-71.56
-81.37
-89.64
-96.08
-100.46
-102.74
-103.17
-102.32
-100.93
-99.63
-98.66
-97.75
-96.27
-93.51
-89.04
-82.82
-75.17
-66.59
-57.58
-48.48
-39.44
-30.48
-21.65
-12.98
-4.55
3.44
10.83
17.36
22.84
27.22
30.61
33.25
35.40
37.21
38.69
39.78
40.40
40.53
40.15
39.21
37.66
35.45
32.67
29.55
26.46
23.71
21.47
19.62
17.86
15.83
13.19
9.78
5.62
0.93
-3.99
-8.77
-13.06
-16.56
-19.04
-20.29
-20.20
-18.69
-15.74
-11.43
-5.83
1.01
9.16
18.73
29.80
42.27
55.89
70.13
84.19
97.12
107.94
115.79
120.16
120.89
118.21
112.67
104.93
95.73
85.79
75.65
65.50
55.00
43.17
28.81
11.15
-9.51
-31.60
-52.67
-70.29
-82.94
-90.40
-93.63
-94.10
-93.19
-91.85
-90.64
-89.84
-89.50
-89.38
-88.87
-87.12
-83.33
-77.16
-68.99
-59.79
-50.67
-42.31
-34.36
-25.27
-12.72
5.54
30.47
60.89
93.36
123.02
145.03
156.12
155.52
144.87
127.26
106.08
84.10
63.23
44.78
29.70
18.73
12.22
9.91
10.84
13.76
17.65
22.14
27.47
34.11
42.21
51.08
59.24
64.78
65.96
61.69
51.98
37.83
20.99
3.58
-12.42
-25.55
-35.07
-40.96
-43.89
-44.91
-45.18
-45.65
-46.89
-49.01
-51.74
-54.63
-57.17
-58.96
-59.79
-59.56
-58.33
-56.27
-53.65
-50.96
-48.73
-47.44
-47.27
-48.01
-49.03
-49.56
-48.98
-47.08
-44.13
-40.62
-37.02
-33.52
-30.04
-26.41
-22.62
-19.01
-16.20
-14.94
-15.78
-18.98
-24.36
-31.35
-39.21
-47.17
-54.65
-61.38
-67.55
-73.65
-80.30
-87.98
-96.74
-106.21
-115.70
-124.55
-132.40
-139.40
-146.07
-153.13
-160.89
-168.91
-175.78
-179.21
-176.49
-165.00
-142.92
-109.75
-66.88
-17.61
33.19
80.10
118.48
145.69
161.56
168.02
168.00
164.22
158.40
151.39
143.66
135.92
129.17
124.34
121.61
120.26
118.90
116.21
111.56
105.30
98.46
92.14
87.03
83.13
80.00
76.97
73.59
69.71
65.50
61.34
57.62
54.56
52.09
49.86
47.34
44.09
40.08
35.78
31.99
29.55
28.98
30.17
32.59
35.46
38.17
40.42
42.26
43.85
45.25
46.26
46.33
44.76
40.91
34.35
24.97
13.04
-0.78
-15.50
-29.94
-43.04
-54.00
-62.64
-69.28
-74.70
-79.84
-85.45
-91.93
-99.37
-107.68
-116.71
-126.31
-136.31
-146.46
-156.47
-165.93
-174.40
-181.34
-186.10
-187.89
-185.78
-178.77
-165.93
-146.60
-120.57
-88.35
-51.34
-11.93
26.64
60.68
86.74
102.42
106.92
101.28
88.06
70.71
52.81
37.38
26.60
21.70
23.11
30.59
43.34
60.27
80.09
101.65
123.94
146.09
167.12
185.70
200.23
209.12
211.24
206.30
194.90
178.41
158.77
138.19
119.00
103.38
92.96
88.44
89.28
93.86
99.93
105.39
108.82
109.56
107.34
101.78
91.98
76.61
54.43
24.98
-10.92
-51.09
-92.44
-131.66
-165.84
-192.92
-211.58
-221.07
-221.13
-212.07
-195.09
-172.57
-148.00
-125.45
-108.69
-100.28
-101.01
-110.03
-125.34
-144.57
-165.43
-185.87
-203.93
-217.78
-225.84
-227.10
-221.59
-210.30
-195.02
-177.59
-159.30
-140.45
-120.42
-98.03
-72.26
-42.92
-10.88
21.90
52.92
79.86
101.29
116.98
127.65
134.42
138.24
139.66
138.98
136.54
132.86
128.47
123.67
118.17
111.35
102.64
92.16
80.80
69.89
60.52
52.86
46.07
38.62
29.06
16.59
1.41
-15.40
-32.28
-47.60
-60.00
-68.74
-74.05
-76.99
-78.94
-80.98
-83.21
-84.83
-84.46
-80.86
-73.75
-64.47
-55.49
-49.13
-46.24
-45.44
-43.63
-37.04
-22.34
2.53
37.35
79.89
126.56
172.86
213.78
244.48
261.67
265.17
258.06
244.39
226.58
203.63
171.56
125.97
64.73
-9.63
-88.93
-158.35
-202.76
-214.72
-198.47
-165.43
-126.34
-87.12
-48.91
-10.82
27.46
63.90
94.94
117.67
130.20
132.66
126.62
114.28
97.65
77.78
53.21
23.64
-10.50
-47.60
-84.65
-118.30
-145.86
-166.28
-179.96
-187.88
-190.08
-184.89
-169.22
-140.58
-99.58
-50.78
-1.61
40.38
70.36
87.11
92.55
90.00
82.49
71.89
59.44
46.33
34.51
26.26
22.81
22.80
22.58
16.98
1.27
-25.98
-61.42
-97.35
-123.06
-131.28
-120.35
-94.59
-61.89
-30.01
-3.64
16.32
31.38
43.32
52.47
58.10
59.43
56.61
51.10
45.18
41.08
39.94
41.52
44.00
45.43
44.51
41.17
36.58
32.64
31.17
33.02
37.83
44.00
49.60
53.05
53.70
52.04
48.84
44.95
40.44
34.51
25.61
12.24
-6.28
-29.31
-54.77
-79.80
-101.73
-118.83
-130.72
-138.23
-142.77
-145.89
-148.99
-153.12
-158.79
-165.20
-169.79
-168.42
-156.64
-132.18
-96.56
-55.33
-16.06
14.43
32.80
39.88
39.30
35.56
31.37
27.37
22.81
17.15
10.67
4.48
-0.53
-4.54
-8.29
-13.11
-20.14
-29.49
-40.19
-50.66
-59.31
-65.42
-69.40
-71.95
-74.29
-77.47
-81.65
-86.19
-89.66
-90.38
-86.65
-81.60
-76.74
-73.38
-72.22
-73.20
-75.56
-78.12
-79.97
-80.81
-81.23
-81.77
-83.43
-86.91
-92.18
-98.46
-104.45
-108.84
-110.93
-110.85
-108.87
-105.70
-101.61
-96.08
-87.69
-74.59
-55.23
-29.22
2.40
37.64
74.02
109.32
142.19
172.60
202.08
233.36
269.64
312.79
361.95
412.43
456.02
483.02
485.42
459.86
409.12
341.54
268.50
201.16
148.25
113.88
97.52
95.14
101.33
111.11
121.34
131.05
140.78
152.61
166.84
180.25
186.38
177.68
148.33
96.88
26.73
-54.71
-134.96
-202.74
-250.87
-277.91
-286.99
-283.43
-272.54
-258.63
-244.52
-226.16
-198.80
-158.73
-105.72
-42.22
28.52
104.13
183.30
265.26
355.59
457.55
570.16
686.71
798.10
896.97
979.47
1043.54
1045.56
955.90
768.90
512.95
237.49
-10.10
-201.19
-329.54
-406.34
-451.30
-474.83
-485.05
-484.83
-476.26
-462.72
-447.90
-434.20
-421.35
-406.47
-379.18
-332.25
-264.47
-183.65
-104.61
-44.18
-15.28
-22.33
-60.16
-112.75
-162.12
-194.40
-204.88
-197.74
-181.69
-164.88
-151.59
-142.04
-132.73
-120.84
-105.66
-89.01
-73.62
-61.13
-51.40
-42.67
-32.65
-19.51
-3.14
15.04
32.74
47.67
58.52
64.61
66.43
64.81
60.27
52.72
41.79
27.55
10.63
-7.70
-26.44
-43.97
-58.82
-70.08
-77.72
-82.35
-84.80
-85.88
-86.17
-87.01
-88.95
-92.08
-96.37
-101.84
-108.33
-115.66
-123.58
-125.16
-119.49
-107.49
-90.84
-71.27
-50.34
-29.33
-9.15
9.38
25.83
39.06
48.63
54.84
58.43
60.18
60.96
61.64
62.74
64.90
67.98
72.10
77.64
84.85
93.57
103.33
113.56
123.06
130.49
134.10
132.70
125.75
113.25
95.70
73.94
50.13
26.05
3.33
-16.93
-33.88
-47.07
-56.41
-62.24
-65.05
-65.38
-64.14
-62.07
-59.75
-57.54
-55.62
-54.05
-52.83
-51.88
-50.96
-50.35
-50.41
-51.44
-53.64
-57.21
-61.97
-67.33
-73.87
-79.70
-83.57
-84.52
-81.76
-74.82
-63.91
-49.34
-31.70
-11.89
9.15
29.93
48.90
64.69
76.23
82.88
84.89
83.29
79.54
75.48
72.40
70.91
70.96
71.75
71.90
70.52
67.18
61.80
54.73
45.80
34.41
19.80
2.75
-17.36
-39.93
-63.11
-84.27
-103.20
-117.68
-126.58
-130.20
-129.99
-128.04
-126.30
-126.72
-130.90
-134.91
-138.10
-137.63
-129.06
-109.26
-79.09
-43.60
-10.56
12.73
22.70
19.83
8.25
-7.00
-22.69
-38.03
-53.26
-68.30
-82.90
-94.24
-99.96
-98.49
-89.58
-74.08
-53.47
-28.96
-1.52
27.97
57.78
85.48
109.34
128.26
141.81
150.35
154.72
155.72
153.84
149.33
142.19
132.97
122.90
113.55
106.45
102.34
100.39
98.71
95.07
88.04
77.89
66.67
57.07
51.14
49.58
51.49
55.19
58.99
61.05
59.09
50.05
31.24
2.60
-31.48
-62.69
-81.39
-81.43
-63.16
-33.23
-1.46
24.12
40.78
51.00
59.02
66.83
72.11
68.75
51.81
21.14
-17.42
-54.07
-79.32
-88.57
-83.24
-69.49
-55.07
-45.39
-41.91
-42.38
-42.48
-38.13
-27.25
-10.45
8.98
26.10
36.61
37.87
30.25
16.62
0.84
-14.09
-26.94
-38.64
-50.54
-62.85
-74.48
-83.33
-87.64
-86.65
-81.00
-72.02
-61.17
-49.38
-36.67
-23.04
-8.58
6.17
20.40
33.16
43.78
51.95
57.64
61.04
62.26
61.64
59.53
56.48
53.16
50.20
48.24
47.99
50.28
55.22
61.66
66.51
65.10
52.78
27.43
-8.42
-47.64
-80.57
-98.90
-98.92
-82.78
-56.68
-27.77
-1.08
21.33
39.14
51.92
58.17
56.36
46.56
31.61
16.30
5.38
1.37
3.39
8.01
11.51
11.90
9.52
6.19
3.51
1.89
0.55
-1.83
-6.13
-12.16
-18.88
-24.97
-29.13
-31.27
-32.58
-35.03
-40.95
-52.24
-69.39
-90.99
-114.07
-135.05
-150.75
-158.87
-158.33
-149.91
-136.12
-119.79
-102.73
-85.45
-67.58
-48.11
-25.24
3.58
40.29
85.25
137.42
194.77
253.75
309.19
355.38
387.73
403.53
400.32
374.64
323.18
245.43
144.62
27.51
-96.38
-216.15
-314.81
-372.42
-379.64
-345.54
-289.31
-227.99
-170.95
-121.07
-77.76
-39.97
-8.00
16.40
31.29
37.80
39.31
39.35
40.51
44.62
51.38
58.23
60.96
54.80
37.93
11.45
-21.76
-57.41
-90.23
-115.91
-132.16
-133.12
-119.98
-96.47
-67.10
-36.56
-10.62
11.08
29.26
44.60
59.36
75.73
96.35
122.92
151.94
177.20
192.21
192.86
179.08
156.45
131.94
111.06
95.32
81.39
63.43
36.74
-0.42
-47.26
-98.00
-145.71
-184.56
-212.01
-228.80
-237.08
-238.56
-224.26
-195.86
-156.79
-111.74
-66.11
-25.42
6.49
28.88
44.33
56.80
68.66
81.79
94.92
104.60
106.82
98.72
79.36
49.96
12.76
-28.08
-66.08
-94.34
-106.92
-101.01
-78.54
-45.86
-11.64
16.54
34.16
41.62
42.41
40.44
37.89
34.90
30.67
25.01
19.21
14.95
13.63
15.24
18.45
21.20
21.65
19.20
14.66
9.73
6.11
4.84
5.87
8.22
10.42
11.17
9.91
6.99
3.49
0.70
-0.48
0.16
2.15
4.48
5.98
5.86
4.01
1.06
-1.81
-3.45
-3.15
-0.96
2.20
4.80
5.31
2.88
-2.32
-8.91
-15.03
-19.07
-20.11
-18.40
-15.37
-12.62
-11.44
-11.95
-13.07
-13.21
-10.70
-4.23
6.53
20.43
34.49
44.14
44.44
32.18
7.78
-23.91
-54.38
-74.56
-78.98
-68.26
-48.49
-28.78
-16.31
-14.33
-21.07
-31.05
-37.63
-36.10
-25.11
-6.64
15.25
36.08
52.02
60.78
61.53
54.93
43.13
30.12
20.50
18.02
24.02
36.59
51.76
65.35
75.09
80.89
83.63
82.49
74.50
56.12
25.64
-12.31
-48.72
-73.43
-80.19
-69.23
-47.19
-24.17
-7.97
-2.65
-7.79
-20.00
-34.16
-45.40
-50.04
-46.32
-35.62
-21.69
-9.66
-3.43
-4.70
-12.09
-22.64
-33.48
-42.90
-50.62
-56.37
-59.08
-56.83
-48.40
-33.83
-15.34
3.90
20.93
33.82
42.76
49.21
55.16
61.43
67.86
73.16
76.24
76.66
75.13
73.32
72.82
74.51
78.02
82.19
85.69
87.66
88.19
87.86
87.50
87.84
89.05
90.23
89.59
84.48
72.04
50.76
21.22
-13.40
-46.49
-70.03
-78.06
-69.76
-50.50
-30.21
-19.12
-24.39
-47.75
-85.89
-130.85
-172.82
-203.08
-216.86
-214.08
-197.37
-170.05
-135.11
-95.34
-54.17
-15.59
16.58
40.02
54.79
63.52
70.03
76.86
84.21
89.86
90.11
81.07
59.91
25.68
-18.39
-65.92
-108.33
-136.68
-144.26
-129.25
-95.85
-52.98
-10.95
22.35
43.44
53.36
55.75
54.40
51.58
47.98
43.65
39.28
36.12
35.13
36.21
38.12
39.19
38.17
34.96
30.65
26.91
24.96
24.75
25.14
24.22
20.51
13.66
4.75
-3.95
-9.63
-9.64
-2.77
9.69
23.46
32.04
29.02
11.06
-19.83
-56.21
-87.63
-105.40
-106.28
-93.50
-74.39
-56.25
-42.78
-33.19
-23.96
-12.01
2.90
18.01
29.54
34.83
34.00
29.46
24.39
20.92
19.54
19.88
21.87
26.19
32.62
38.56
38.81
27.77
3.24
-30.63
-63.82
-84.56
-84.59
-64.52
-33.35
-3.33
16.08
22.18
18.47
10.92
3.80
-2.11
-8.52
-16.87
-25.81
-31.46
-29.30
-16.84
4.89
31.57
57.38
77.09
88.43
92.75
93.82
95.79
101.37
110.78
122.08
132.33
138.88
140.33
136.69
128.85
117.86
104.61
89.59
73.13
55.65
37.71
19.92
3.03
-11.99
-23.84
-30.65
-30.57
-22.67
-7.99
9.88
25.54
33.69
31.62
20.55
5.57
-7.11
-13.41
-13.74
-12.87
-17.40
-32.43
-58.09
-91.19
-126.18
-158.30
-185.35
-207.86
-228.06
-248.06
-268.96
-290.59
-312.44
-333.82
-354.12
-372.22
-386.05
-392.40
-387.49
-368.14
-333.20
-284.51
-226.54
-165.42
-107.16
-55.91
-13.15
22.35
53.56
84.06
116.94
154.05
195.30
238.30
278.89
312.07
334.22
344.26
344.09
337.82
329.91
323.63
320.15
319.05
319.02
318.77
316.74
311.00
299.33
280.21
254.11
224.32
196.72
177.78
172.13
180.09
196.78
213.49
220.55
210.33
179.39
129.14
64.88
-5.73
-74.97
-136.77
-187.57
-226.23
-253.78
-273.30
-288.78
-303.14
-316.38
-324.51
-320.53
-296.81
-248.65
-177.91
-94.82
-16.16
39.91
59.99
39.62
-16.06
-94.80
-179.40
-251.15
-294.99
-304.37
-282.33
-238.00
-181.35
-120.18
-59.90
-4.91
40.68
73.45
92.00
98.13
96.70
93.98
95.25
102.93
116.16
131.14
143.26
148.21
143.96
131.35
113.23
92.49
70.78
47.92
22.47
-6.57
-39.64
-76.14
-114.52
-152.50
-187.12
-214.52
-229.99
-229.34
-210.95
-177.52
-136.21
-96.43
-66.44
-50.30
-47.18
-51.53
-57.01
-58.99
-55.54
-46.71
-33.12
-14.92
8.27
36.11
67.06
98.49
127.27
150.32
165.66
172.88
173.09
168.46
161.57
154.71
149.22
145.29
142.14
138.57
133.55
126.87
118.91
110.76
103.64
98.34
95.11
93.94
94.84
97.54
100.73
101.48
95.62
79.33
51.31
14.28
-25.49
-60.37
-84.60
-96.34
-97.81
-93.34
-86.94
-80.64
-74.49
-67.80
-60.44
-53.35
-47.91
-44.91
-44.01
-43.82
-42.63
-39.32
-33.91
-27.41
-21.27
-16.73
-14.15
-12.92
-11.80
-9.28
-4.41
2.94
12.15
22.17
31.80
40.12
46.60
50.83
52.62
51.55
46.94
38.13
24.71
6.78
-14.88
-38.81
-63.21
-85.81
-104.59
-117.99
-125.03
-125.44
-119.44
-107.79
-90.57
-70.15
-48.21
-26.16
-5.09
14.25
31.30
45.95
58.26
68.24
75.61
80.34
82.09
80.42
74.99
65.66
52.68
36.79
19.14
0.99
-16.02
-30.37
-40.91
-46.93
-48.29
-45.52
-39.46
-31.25
-22.03
-12.77
-4.24
3.23
9.66
15.34
20.57
25.69
31.08
37.07
43.68
50.63
57.57
64.06
69.55
73.36
74.99
74.08
70.51
64.12
54.94
43.18
29.19
14.76
0.40
-13.34
-25.90
-36.65
-45.40
-52.11
-56.77
-59.58
-60.79
-60.79
-59.92
-58.58
-56.97
-55.67
-55.08
-55.37
-56.56
-58.39
-60.38
-61.90
-63.94
-64.99
-64.57
-62.65
-59.34
-54.52
-48.03
-40.00
-30.90
-21.59
-13.03
-6.72
-4.05
-5.84
-11.89
-21.17
-32.30
-44.01
-55.35
-65.82
-75.71
-85.73
-96.05
-105.70
-113.10
-116.91
-116.61
-112.59
-105.99
-98.70
-93.45
-92.98
-98.56
-110.82
-129.45
-152.59
-176.33
-195.60
-202.45
-192.76
-167.11
-128.20
-81.75
-34.89
6.16
38.13
60.89
76.11
85.14
88.79
91.54
97.39
107.94
122.04
137.83
154.40
172.41
193.31
219.24
257.29
312.42
384.22
466.69
551.42
630.67
698.63
751.18
755.19
692.82
570.29
415.02
257.50
117.08
0.77
-91.58
-163.02
-216.98
-251.38
-264.57
-258.65
-241.24
-220.69
-204.67
-199.12
-207.34
-228.75
-254.94
-272.85
-273.10
-253.20
-217.09
-172.48
-127.40
-87.75
-56.04
-29.81
-6.43
14.46
31.13
42.01
46.91
48.08
46.55
42.88
37.64
30.07
17.63
-2.75
-32.84
-70.63
-110.11
-143.01
-160.96
-158.56
-136.29
-100.97
-63.00
-31.99
-13.05
-5.88
-6.45
-9.81
-12.84
-15.11
-17.75
-21.80
-26.98
-31.68
-34.44
-34.94
-34.06
-33.50
-35.01
-39.23
-45.81
-53.43
-60.44
-65.77
-69.21
-71.13
-72.15
-73.00
-72.96
-70.90
-65.56
-56.21
-43.07
-27.46
-11.50
2.31
11.85
15.90
14.07
6.84
-4.58
-18.59
-33.31
-46.76
-57.09
-62.48
-61.28
-52.69
-37.02
-15.62
9.18
34.64
58.07
76.96
89.57
95.19
93.78
85.63
71.23
51.47
28.03
3.30
-19.98
-38.88
-50.78
-53.85
-47.81
-33.97
-14.48
9.15
36.87
66.12
96.03
126.47
158.05
190.84
224.25
257.30
289.99
323.72
360.83
393.32
414.33
421.54
416.51
402.16
378.24
341.38
287.82
217.37
143.36
72.70
12.73
-31.63
-60.17
-78.47
-93.64
-110.87
-131.58
-153.56
-173.99
-190.22
-202.21
-212.36
-225.52
-245.46
-273.52
-308.40
-347.11
-386.21
-420.50
-444.23
-442.21
-405.50
-336.05
-247.60
-158.93
-84.79
-31.57
2.61
23.10
34.77
38.43
33.57
21.10
4.51
-11.02
-21.26
-24.41
-21.90
-17.12
-15.48
-19.55
-27.86
-35.74
-37.30
-27.86
-5.24
29.89
74.45
122.67
167.87
205.04
231.68
249.18
262.34
276.99
297.08
322.64
349.29
365.96
364.04
337.75
286.13
213.01
125.51
32.73
-55.23
-128.63
-179.61
-202.43
-197.38
-170.01
-129.44
-87.17
-54.84
-41.60
-52.43
-87.07
-138.61
-197.94
-255.16
-296.61
-312.01
-298.11
-259.87
-207.92
-160.26
-122.24
-94.18
-74.57
-61.73
-53.93
-51.63
-55.88
-67.58
-87.96
-117.06
-155.51
-201.90
-250.91
-294.31
-323.20
-330.99
-316.41
-284.27
-242.86
-202.05
-168.91
-145.47
-129.99
-119.04
-109.55
-99.41
-86.97
-69.93
-47.04
-19.49
7.86
26.95
29.53
11.76
-22.76
-63.49
-96.96
-112.87
-107.98
-86.10
-55.03
-22.10
8.81
37.27
64.40
90.66
115.23
137.57
159.64
186.62
225.12
279.73
349.42
426.57
498.49
551.65
575.93
567.43
529.29
470.57
403.87
342.62
297.73
274.26
269.16
271.24
264.44
233.10
168.02
70.33
-48.35
-169.43
-272.74
-341.50
-366.20
-346.44
-290.98
-215.84
-140.43
-82.24
-51.65
-49.09
-65.41
-85.77
-95.06
-82.47
-44.31
15.69
87.74
158.77
215.71
249.28
256.52
241.93
215.96
191.25
178.15
181.30
198.89
224.01
247.63
261.41
259.66
240.18
204.23
155.86
101.04
46.13
-3.69
-45.44
-78.93
-106.31
-131.36
-158.41
-190.54
-228.08
-267.32
-301.00
-320.11
-317.47
-290.27
-241.16
-177.19
-107.49
-40.68
16.73
60.85
90.24
105.13
107.73
101.73
91.96
83.56
80.78
86.18
99.93
119.72
139.67
153.13
154.84
143.25
121.10
93.36
63.89
33.02
-1.30
-42.50
-89.05
-133.34
-163.82
-170.07
-148.61
-105.79
-55.90
-14.61
3.43
-7.69
-45.66
-102.05
-165.37
-224.11
-268.55
-292.12
-290.29
-265.15
-220.16
-160.73
-92.89
-21.94
48.27
115.33
167.09
212.65
246.53
264.50
263.31
242.26
203.80
152.80
95.14
36.04
-19.54
-71.52
-118.77
-159.36
-189.60
-204.81
-201.33
-178.50
-139.81
-90.77
-40.04
7.44
51.22
94.68
141.80
193.26
244.43
286.62
311.86
315.34
300.01
274.34
248.10
227.80
214.19
203.02
188.06
164.91
131.83
90.84
45.97
1.87
-37.27
-68.43
-90.49
-104.96
-115.34
-126.18
-140.64
-159.02
-178.82
-196.32
-208.71
-215.40
-217.50
-215.95
-209.56
-194.75
-166.89
-123.02
-63.57
7.25
82.19
152.31
208.57
243.57
252.87
235.73
194.52
135.82
70.13
10.70
-29.86
-43.78
-31.31
-1.42
31.02
48.98
40.69
3.85
-54.31
-121.58
-186.43
-241.60
-284.37
-314.26
-333.32
-343.56
-347.40
-348.35
-351.17
-360.25
-376.90
-397.44
-400.83
-369.78
-299.12
-200.86
-97.90
-12.03
44.70
71.98
78.00
74.68
70.44
69.35
70.85
73.39
75.72
77.25
78.52
81.35
88.84
102.41
122.49
148.77
180.48
216.68
254.35
289.22
313.33
319.46
303.52
268.39
223.78
181.21
149.05
130.51
120.61
113.86
108.10
104.58
107.04
119.69
143.46
176.26
212.11
240.06
247.09
224.14
171.09
97.16
16.99
-58.44
-126.35
-188.21
-246.14
-299.81
-344.95
-375.19
-386.31
-373.11
-341.32
-303.36
-273.10
-259.94
-265.85
-284.66
-305.07
-315.22
-307.13
-280.49
-240.49
-195.58
-153.23
-118.94
-94.90
-80.49
-72.91
-68.34
-64.23
-56.13
-46.87
-36.22
-25.81
-16.70
-11.92
-13.07
-18.26
-23.79
-27.36
-31.13
-38.27
-51.37
-69.65
-88.62
-101.53
-102.45
-89.00
-63.28
-30.92
2.67
33.61
60.94
86.25
111.91
139.39
168.22
196.73
223.81
251.34
283.64
326.04
382.02
450.71
525.77
596.24
650.32
679.55
682.35
663.95
633.71
600.99
571.68
547.22
525.80
504.45
481.70
458.25
435.94
416.10
398.59
381.97
364.57
345.49
324.71
303.40
283.11
264.97
249.09
234.40
218.96
200.82
178.45
150.31
115.66
74.54
27.69
-23.76
-78.71
-135.99
-194.17
-251.35
-307.53
-362.20
-413.67
-458.91
-494.48
-518.12
-529.60
-530.45
-523.35
-516.11
-515.42
-524.22
-540.37
-558.48
-573.14
-581.30
-582.35
-577.79
-577.89
-591.79
-623.31
-668.75
-719.74
-768.31
-810.28
-844.81
-873.54
-908.59
-959.88
-1030.48
-1114.57
-1201.39
-1280.57
-1345.04
-1388.59
-1344.95
-1171.91
-867.54
-479.88
-81.42
267.77
538.43
727.91
850.47
925.41
960.30
959.60
928.56
877.61
820.12
772.38
738.82
719.03
709.37
697.49
673.13
631.90
577.19
516.59
457.66
404.39
359.09
322.67
290.76
261.23
231.58
205.01
186.49
180.23
187.79
209.78
239.54
266.38
282.67
286.53
281.93
274.78
268.89
263.40
253.52
240.56
216.75
178.20
126.73
68.09
8.86
-46.08
-94.98
-138.71
-178.59
-215.56
-248.12
-269.38
-273.39
-258.72
-229.69
-193.93
-158.39
-127.22
-102.68
-84.05
-69.85
-59.46
-52.62
-48.86
-46.98
-45.01
-41.17
-35.00
-26.25
-15.14
-3.02
8.93
20.14
30.47
40.22
49.59
57.40
62.29
62.83
57.19
43.94
22.62
-5.11
-34.65
-58.83
-71.25
-68.39
-51.47
-26.35
-1.03
17.79
27.25
28.77
26.09
22.64
20.05
18.01
15.46
12.05
8.65
6.75
7.54
10.78
14.88
17.96
18.68
16.93
13.78
10.81
9.27
9.56
11.12
12.80
13.66
13.06
10.43
5.03
-3.87
-16.60
-32.94
-51.29
-69.58
-85.75
-98.61
-107.75
-112.39
-110.62
-99.09
-74.95
-37.98
7.88
55.24
95.92
123.88
136.90
135.98
123.49
101.62
72.42
38.91
5.99
-19.10
-30.33
-25.44
-7.43
16.70
39.10
54.27
60.74
59.96
54.79
47.81
40.87
34.61
28.83
22.83
16.06
8.65
0.85
-6.64
-13.09
-17.90
-21.30
-24.61
-30.11
-39.81
-54.29
-72.29
-90.79
-105.41
-111.88
-107.87
-93.82
-72.42
-47.27
-21.92
0.21
15.85
23.41
24.68
24.86
30.57
47.27
76.55
115.01
155.97
189.07
204.45
200.55
185.98
173.51
171.73
180.77
194.44
206.81
214.76
218.49
219.98
219.67
215.34
203.44
181.46
149.75
111.52
71.19
33.30
1.33
-23.73
-44.91
-66.09
-89.40
-113.74
-135.62
-151.29
-157.84
-153.75
-139.93
-122.50
-107.45
-97.65
-91.79
-86.38
-78.64
-67.65
-53.85
-40.18
-35.45
-46.45
-74.45
-114.54
-159.22
-202.74
-242.31
-276.96
-308.86
-347.33
-399.23
-465.63
-541.58
-620.07
-695.63
-763.86
-819.03
-812.83
-717.88
-542.28
-328.09
-123.11
43.06
162.00
233.20
274.93
299.55
307.46
298.08
275.03
248.20
231.85
234.96
259.36
300.97
349.07
386.98
401.91
389.08
353.71
306.92
259.27
217.79
185.71
161.09
137.59
109.68
73.97
32.02
-10.55
-47.27
-71.48
-76.98
-60.54
-23.19
30.03
89.92
147.82
198.42
239.50
272.31
300.11
319.08
322.92
314.52
290.07
240.65
163.92
64.22
-48.30
-160.77
-261.81
-343.94
-405.10
-449.25
-481.60
-505.97
-525.76
-544.40
-565.14
-589.85
-616.51
-639.12
-650.34
-642.73
-611.33
-556.66
-484.24
-402.26
-318.69
-238.80
-164.90
-97.96
-37.25
19.47
74.99
132.43
194.94
265.08
344.40
432.25
524.30
612.83
688.03
739.86
761.31
750.74
712.16
653.38
582.91
507.23
430.25
354.35
282.00
216.47
161.33
118.92
89.06
68.87
53.70
38.84
21.03
-0.52
-23.77
-44.54
-57.78
-59.20
-46.93
-21.95
12.68
53.47
97.64
143.04
186.75
223.94
248.22
253.56
237.16
201.26
152.47
98.85
46.77
-0.90
-43.90
-82.40
-115.13
-139.55
-153.75
-158.69
-158.93
-161.14
-171.29
-192.28
-223.39
-261.25
-301.52
-340.15
-373.46
-397.73
-409.32
-405.35
-384.82
-349.27
-302.35
-248.72
-192.91
-138.26
-86.66
-39.01
4.64
45.21
84.74
126.20
172.56
224.70
280.80
336.23
384.84
421.09
442.42
450.13
448.58
442.87
435.68
427.41
416.62
401.32
379.88
350.76
311.92
260.71
194.57
110.90
10.72
-100.75
-215.09
-322.42
-414.18
-484.71
-531.85
-556.19
-561.26
-549.48
-521.91
-479.89
-426.94
-370.30
-319.42
-282.35
-250.43
-216.30
-174.01
-123.41
-71.11
-26.73
1.62
11.46
6.78
-4.34
-16.13
-26.06
-35.08
-45.47
-58.20
-72.98
-88.48
-102.89
-114.92
-125.41
-136.92
-149.56
-161.07
-167.57
-165.81
-153.94
-131.53
-99.60
-61.28
-20.30
19.80
58.19
95.63
132.12
166.78
198.63
227.35
253.24
278.07
305.53
333.69
364.05
396.83
430.38
461.93
488.61
507.96
518.18
499.54
443.10
352.88
242.59
128.64
23.15
-68.18
-144.20
-206.41
-257.45
-297.25
-325.47
-343.48
-353.57
-358.43
-361.24
-362.47
-361.65
-358.28
-350.03
-335.20
-314.26
-288.85
-261.40
-233.96
-207.29
-181.63
-156.93
-131.43
-103.10
-74.30
-46.98
-22.98
-3.56
11.44
22.27
28.95
31.92
31.64
28.69
24.80
22.19
23.28
31.54
48.87
74.94
107.47
142.97
178.24
211.87
243.74
274.55
307.14
342.75
380.02
415.30
443.80
461.95
468.80
465.40
454.15
440.88
430.96
427.89
432.24
441.08
449.25
450.64
439.73
396.40
313.23
197.51
70.12
-44.88
-132.38
-189.60
-222.00
-237.12
-240.50
-231.92
-211.26
-181.09
-145.99
-113.68
-90.20
-77.93
-76.08
-82.58
-92.98
-105.32
-121.33
-142.08
-168.16
-198.41
-230.03
-259.61
-284.93
-302.06
-308.59
-303.54
-288.02
-265.79
-242.67
-225.00
-217.58
-225.49
-244.21
-266.87
-286.33
-297.36
-297.37
-286.04
-264.02
-227.22
-178.66
-121.88
-61.71
-3.81
46.04
83.48
106.98
119.01
124.61
129.10
138.03
153.31
172.27
186.35
187.98
172.61
140.64
97.13
48.37
0.79
-42.01
-78.99
-110.83
-136.87
-154.87
-162.18
-157.17
-140.53
-114.18
-81.18
-44.61
-6.86
30.21
65.61
98.64
128.23
152.48
169.49
177.89
177.50
169.89
158.29
146.38
137.03
131.34
128.45
126.41
123.26
117.61
109.56
100.51
92.28
86.39
83.70
84.54
88.52
94.01
97.64
94.78
81.09
54.74
18.06
-22.64
-59.28
-85.23
-97.89
-99.22
-93.91
-86.75
-80.50
-75.49
-70.75
-65.41
-59.62
-54.26
-50.26
-47.83
-46.47
-45.42
-43.88
-41.53
-38.42
-34.73
-30.58
-26.14
-21.62
-17.38
-13.91
-11.47
-9.69
-7.60
-3.87
2.99
13.57
27.24
41.96
54.66
61.93
61.23
51.84
35.94
18.30
4.95
0.82
8.22
25.05
45.71
63.07
70.58
64.16
43.30
10.76
-27.60
-64.49
-93.49
-110.97
-117.32
-116.34
-113.51
-113.36
-117.45
-123.33
-126.14
-121.71
-108.17
-86.87
-61.26
-35.11
-10.38
12.11
32.10
48.01
56.28
52.74
35.26
6.42
-25.36
-48.45
-52.73
-34.39
1.80
44.37
80.44
100.23
101.51
88.75
69.51
50.52
35.24
23.83
14.59
5.65
-4.21
-14.59
-23.84
-29.61
-29.50
-22.14
-8.25
8.96
24.97
35.24
37.68
33.50
26.16
19.45
15.46
13.80
12.04
7.59
-1.06
-13.65
-28.36
-42.49
-52.87
-56.88
-53.36
-43.08
-28.85
-14.67
-4.31
0.08
-1.40
-6.76
-13.27
-18.73
-22.04
-23.05
-21.91
-18.50
-12.42
-3.66
7.01
18.16
28.09
35.54
40.02
41.46
39.41
32.95
20.42
0.40
-27.01
-59.30
-91.45
-117.10
-130.76
-130.15
-117.05
-97.58
-79.98
-71.30
-74.74
-88.73
-108.04
-126.46
-139.22
-143.79
-140.22
-129.97
-114.69
-95.34
-72.02
-44.12
-10.64
26.26
64.42
100.92
132.20
154.51
164.92
162.63
149.72
130.63
110.50
93.77
82.26
75.12
70.09
65.19
60.30
57.64
61.20
75.07
101.63
139.50
183.04
223.59
252.33
263.43
256.21
235.03
207.16
179.73
156.65
138.00
120.98
102.18
79.27
51.56
19.81
-14.43
-48.92
-80.94
-107.58
-126.55
-137.05
-140.10
-138.11
-133.64
-128.43
-122.89
-116.59
-108.95
-100.04
-90.30
-80.15
-69.43
-57.22
-42.28
-23.57
-0.86
24.98
51.92
77.19
98.01
112.22
119.07
119.36
115.20
109.44
104.76
103.32
106.44
114.87
128.74
147.58
170.02
193.59
214.85
229.64
233.68
223.12
195.14
148.46
84.22
6.36
-78.41
-161.63
-234.90
-291.64
-328.30
-344.23
-340.89
-320.80
-287.08
-243.82
-196.36
-151.13
-114.32
-90.13
-79.26
-78.75
-83.14
-86.57
-84.69
-75.45
-59.01
-36.72
-10.25
18.95
49.54
80.04
108.51
132.54
149.79
158.31
156.93
145.59
125.29
98.04
66.48
33.33
0.65
-30.49
-60.24
-89.67
-119.99
-151.88
-185.00
-217.80
-247.98
-273.05
-290.79
-299.51
-298.09
-285.93
-263.18
-230.76
-190.48
-144.98
-97.41
-50.71
-7.10
32.33
67.47
97.96
122.87
140.41
148.35
145.18
131.39
109.88
85.38
63.20
46.93
38.14
36.43
40.25
48.02
58.98
73.19
91.10
113.04
137.68
162.79
185.51
202.69
211.12
207.85
190.55
158.02
111.31
53.11
-10.72
-72.15
-123.27
-159.08
-179.53
-189.65
-197.52
-202.61
-203.34
-196.01
-177.21
-146.51
-107.15
-64.54
-23.82
11.90
42.56
68.89
91.73
111.20
126.54
137.15
143.41
147.63
151.37
155.54
158.62
157.79
149.79
132.10
104.14
67.25
26.25
-13.69
-48.54
-76.77
-98.55
-115.31
-129.02
-141.59
-154.01
-165.51
-173.39
-173.02
-159.92
-132.04
-91.68
-45.50
-2.29
30.67
50.18
57.53
57.20
53.87
50.30
46.81
42.53
36.93
30.93
26.42
24.94
26.68
30.30
33.62
34.45
31.89
26.55
20.35
15.53
13.68
15.07
18.53
21.97
23.33
21.50
16.76
10.69
5.48
2.91
3.60
6.62
9.86
10.96
8.32
1.66
-7.94
-18.61
-28.49
-36.05
-40.28
-40.76
-37.41
-31.17
-24.36
-20.31
-22.04
-30.49
-43.54
-56.10
-62.67
-59.66
-46.99
-27.84
-6.64
13.09
29.94
44.17
56.39
66.40
73.28
76.30
76.00
74.42
73.91
76.18
81.17
86.57
88.95
84.87
71.93
49.22
17.82
-19.02
-55.80
-85.66
-102.67
-103.92
-91.00
-69.66
-47.63
-31.55
-24.57
-25.67
-31.55
-38.96
-46.10
-52.91
-59.87
-66.82
-72.41
-74.69
-72.40
-65.55
-55.45
-43.78
-31.82
-19.69
-6.74
7.75
23.70
39.81
53.87
63.56
67.68
66.62
62.34
57.46
54.19
53.33
54.11
54.82
53.92
50.95
46.61
42.52
40.42
41.54
46.56
55.48
67.40
79.89
88.85
89.38
78.19
55.78
27.36
1.15
-15.48
-19.60
-14.35
-7.22
-6.32
-16.08
-35.45
-59.04
-79.47
-91.29
-92.79
-85.61
-72.69
-56.83
-39.62
-21.68
-3.47
14.53
31.42
46.05
57.56
66.02
71.15
72.80
70.51
63.10
48.72
25.49
-6.66
-44.74
-81.64
-109.02
-120.29
-113.69
-93.40
-67.76
-45.93
-33.93
-33.02
-40.31
-51.40
-62.55
-71.92
-79.16
-84.24
-87.04
-86.38
-81.13
-71.16
-57.55
-41.91
-25.89
-10.60
3.55
16.46
28.04
37.91
45.49
50.38
52.74
53.43
53.73
54.89
57.39
60.89
64.14
65.64
64.51
60.86
56.26
53.32
55.06
63.35
77.58
93.89
105.77
106.52
92.09
63.50
26.93
-8.58
-35.09
-49.08
-52.65
-52.17
-55.05
-66.72
-89.11
-121.27
-159.40
-197.84
-229.95
-249.10
-250.75
-234.40
-204.71
-169.94
-138.77
-116.18
-101.61
-90.14
-75.68
-54.98
-29.15
-2.58
20.08
36.83
49.35
61.61
77.46
98.46
123.23
148.04
168.34
180.52
182.94
176.35
163.24
146.89
130.16
114.99
102.54
93.81
90.12
93.04
103.71
121.83
145.26
170.21
192.26
207.74
214.73
213.17
204.61
191.06
174.15
154.47
131.52
104.41
72.86
38.02
2.61
-29.80
-56.12
-74.89
-86.48
-92.56
-94.86
-94.25
-90.65
-83.57
-73.06
-60.19
-47.00
-35.78
-28.41
-26.06
-29.24
-38.03
-52.14
-70.69
-91.79
-112.29
-128.18
-135.46
-131.37
-115.23
-88.56
-54.81
-18.43
16.36
46.49
70.37
87.63
98.58
103.85
104.37
101.12
94.87
85.82
73.20
55.26
29.95
-4.06
-46.59
-93.55
-137.57
-170.50
-186.65
-185.09
-169.34
-145.02
-117.39
-89.99
-64.49
-41.73
-22.46
-7.57
2.39
7.62
9.21
8.83
8.16
8.51
10.27
13.01
15.66
17.28
17.43
16.29
14.57
13.08
12.51
13.12
14.56
16.13
17.20
17.37
16.61
15.31
14.19
14.16
16.01
20.10
26.16
33.60
41.24
47.55
51.20
51.00
46.28
36.85
22.98
4.95
-16.54
-40.73
-66.49
-92.09
-115.08
-132.32
-140.79
-137.21
-122.09
-97.58
-67.28
-35.35
-5.90
17.38
32.35
37.71
33.91
23.49
11.54
3.61
3.76
12.50
25.90
37.71
42.34
37.50
24.53
7.62
-9.18
-23.80
-36.38
-48.40
-60.78
-73.15
-84.00
-92.11
-96.43
-96.95
-94.03
-87.91
-78.33
-64.50
-45.83
-22.59
3.44
29.90
54.08
73.82
88.07
97.05
101.96
104.18
104.72
103.88
101.65
97.83
92.67
86.99
81.97
78.70
77.55
77.81
78.15
77.44
75.01
71.10
66.76
63.20
61.39
61.85
65.04
70.22
75.91
79.27
76.56
64.47
41.92
11.30
-22.06
-51.76
-72.98
-84.12
-86.90
-84.69
-80.37
-75.21
-69.05
-61.60
-53.45
-46.18
-41.11
-38.16
-35.64
-31.03
-22.75
-10.87
2.12
12.44
16.71
12.84
0.96
-17.35
-39.42
-61.55
-79.35
-88.47
-86.11
-72.73
-52.50
-31.63
-15.75
-6.69
-2.40
1.34
7.82
16.98
25.56
29.59
27.61
21.88
17.44
18.54
25.92
36.30
44.22
45.50
39.13
28.26
18.10
13.31
16.08
25.06
36.56
45.85
48.34
40.13
19.09
-14.16
-55.04
-95.07
-123.96
-133.15
-119.90
-88.87
-50.43
-15.84
7.22
17.29
17.74
13.34
6.96
-1.45
-13.74
-30.96
-51.38
-70.27
-81.15
-78.06
-58.08
-22.90
20.62
61.89
89.80
96.70
81.52
50.46
14.79
-13.70
-27.04
-23.49
-7.19
14.67
35.39
50.93
60.50
65.53
68.04
69.50
69.94
68.51
63.99
55.60
43.23
27.47
9.09
-11.27
-33.05
-55.53
-77.07
-94.93
-105.67
-106.32
-95.72
-75.34
-49.08
-21.95
1.45
18.40
28.35
32.57
33.08
31.98
30.89
30.01
29.47
29.15
28.80
28.03
26.45
23.76
19.92
15.30
10.65
6.99
5.33
6.24
9.65
14.90
20.74
25.72
28.48
28.01
23.82
15.85
4.40
-9.83
-25.78
-42.03
-56.91
-68.77
-76.30
-78.70
-75.92
-68.58
-57.72
-44.67
-30.75
-17.21
-5.12
4.68
11.68
15.79
17.33
17.03
15.86
14.82
14.77
16.09
18.62
21.73
24.76
27.33
29.46
31.55
34.20
37.93
42.71
47.88
52.51
55.86
57.88
59.09
60.26
62.05
64.73
67.79
70.15
70.55
68.39
63.92
57.98
51.41
44.82
38.79
33.39
28.08
21.59
11.96
-3.15
-26.25
-59.30
-102.46
-149.96
-191.49
-215.87
-216.82
-195.88
-160.23
-118.47
-77.54
-41.16
-9.85
17.45
42.02
64.31
84.12
101.01
114.59
124.15
128.96
128.52
121.80
107.58
85.58
58.08
30.70
10.65
2.86
8.57
24.48
43.52
57.50
61.22
52.86
35.41
14.42
-6.66
-26.62
-46.23
-67.32
-91.37
-118.50
-147.66
-177.40
-207.27
-239.53
-274.85
-310.07
-338.02
-349.67
-337.40
-298.12
-234.93
-147.85
-50.05
39.31
104.96
142.78
158.36
160.50
156.03
148.29
138.21
124.68
108.44
92.17
78.75
69.64
64.26
60.81
57.33
52.36
44.27
33.37
21.58
11.16
3.62
-0.78
-2.43
-1.64
1.78
7.74
16.61
28.39
41.55
52.68
57.49
52.69
37.61
14.63
-12.07
-37.68
-58.41
-72.55
-80.49
-83.86
-84.52
-83.95
-83.18
-83.06
-84.27
-86.90
-90.48
-93.87
-95.49
-93.81
-87.81
-77.32
-63.13
-46.82
-30.26
-15.06
-2.16
8.47
17.47
25.81
34.26
43.03
51.76
59.70
66.05
70.11
71.55
70.36
67.14
63.20
60.42
60.71
65.24
73.61
83.65
91.94
94.90
90.23
77.71
59.28
38.35
18.66
2.95
-7.68
-13.74
-17.00
-19.53
-23.01
-28.12
-34.11
-39.03
-40.32
-35.60
-23.55
-4.39
20.04
46.94
73.23
96.44
115.00
128.20
135.87
138.13
135.26
127.78
116.58
102.70
87.08
70.24
52.37
33.58
14.31
-4.55
-21.75
-36.12
-47.10
-54.76
-59.78
-62.98
-64.98
-66.10
-66.49
-66.17
-65.21
-63.70
-61.68
-59.12
-56.11
-52.87
-49.77
-47.10
-44.82
-42.47
-39.26
-34.38
-27.33
-18.26
-7.95
2.27
10.92
16.69
18.89
17.71
14.29
10.41
7.97
8.31
11.82
17.81
24.85
31.24
35.52
36.81
34.89
30.14
23.39
15.71
8.20
1.82
-2.77
-5.14
-5.16
-2.79
1.83
8.27
15.59
22.42
27.28
29.05
27.46
23.27
18.09
13.75
11.67
12.37
15.41
19.79
24.60
29.44
34.63
40.73
48.02
56.06
63.58
69.00
71.08
69.23
63.57
54.59
42.75
28.32
11.51
-7.12
-26.52
-45.19
-61.62
-74.65
-83.77
-89.11
-91.18
-90.66
-88.09
-83.82
-78.04
-70.87
-62.67
-54.14
-46.25
-40.10
-36.71
-36.75
-40.29
-46.63
-54.18
-60.67
-63.64
-61.08
-52.20
-37.75
-19.89
-1.28
15.93
31.04
44.81
58.69
73.84
90.22
106.30
119.55
127.20
127.09
118.22
100.89
76.56
47.53
16.58
-13.45
-40.05
-61.39
-76.45
-85.01
-87.41
-84.40
-76.98
-66.34
-53.74
-40.41
-27.48
-16.07
-7.33
-2.55
-3.07
-9.98
-23.57
-42.79
-64.93
-86.03
-101.83
-109.17
-107.12
-97.34
-83.33
-68.77
-55.89
-44.58
-32.76
-17.78
1.75
24.99
48.82
68.92
81.50
84.63
78.99
67.82
55.98
48.54
49.28
59.40
76.77
96.45
111.83
116.64
106.92
82.30
46.44
6.70
-27.10
-44.91
-39.20
-7.92
44.08
105.93
164.26
208.14
233.09
242.00
242.57
242.83
247.10
254.63
261.17
261.97
254.25
237.72
213.33
181.85
143.40
98.26
48.26
-2.46
-48.07
-82.83
-103.29
-109.71
-106.34
-99.96
-98.00
-106.40
-127.97
-161.82
-203.64
-246.90
-284.98
-313.36
-331.17
-341.69
-350.93
-365.34
-389.07
-421.89
-458.48
-489.73
-505.51
-497.95
-463.97
-406.15
-331.69
-250.16
-170.66
-99.91
-41.42
4.42
39.66
67.70
92.41
117.23
144.05
172.82
201.54
227.00
246.13
257.16
259.65
254.75
245.25
235.90
233.41
244.46
272.65
315.77
364.87
406.85
429.37
426.02
399.05
357.92
314.27
276.54
246.94
222.25
197.39
168.77
135.76
100.21
64.74
31.02
-0.51
-29.57
-54.70
-72.95
-81.61
-80.64
-73.81
-67.88
-70.45
-87.20
-119.81
-165.76
-215.75
-256.91
-278.95
-279.03
-261.71
-234.88
-205.45
-177.25
-151.03
-125.85
-101.08
-77.38
-56.41
-39.48
-26.77
-17.25
-9.06
-0.25
10.31
21.92
32.04
37.32
35.08
24.11
4.60
-22.34
-54.33
-88.06
-118.96
-141.26
-149.15
-138.93
-111.26
-71.81
-29.54
6.61
31.09
43.22
46.20
44.56
41.77
39.16
36.33
32.78
28.59
24.72
22.27
21.80
22.91
24.54
25.23
23.84
19.81
13.35
5.49
-2.18
-7.97
-10.69
-10.08
-6.69
-1.33
5.54
14.07
24.49
36.22
47.09
53.51
52.07
41.53
23.99
4.08
-13.37
-25.89
-34.53
-42.66
-53.62
-67.73
-81.96
-91.35
-92.14
-84.28
-71.31
-58.30
-47.00
-35.71
-20.16
3.52
35.77
72.27
105.52
128.10
136.08
130.56
116.70
101.16
89.22
83.05
81.96
84.19
88.87
96.71
109.36
127.62
150.08
172.79
189.90
195.63
186.63
163.39
129.95
92.29
55.92
24.02
-2.87
-26.52
-50.02
-76.36
-107.18
-141.98
-178.04
-211.04
-235.96
-248.02
-245.07
-227.75
-199.24
-164.55
-129.42
-98.83
-76.27
-63.17
-58.50
-60.90
-68.57
-80.00
-94.35
-111.82
-132.73
-157.39
-185.42
-210.48
-226.70
-229.17
-216.04
-188.96
-152.61
-112.15
-72.71
-41.22
-17.94
-1.61
11.00
24.47
43.66
71.33
108.27
150.35
188.78
214.33
220.22
206.11
177.29
145.23
115.13
89.72
70.73
60.17
60.99
73.63
96.79
126.26
155.69
177.73
187.62
184.10
169.44
148.65
126.92
108.37
94.78
85.58
78.20
70.25
59.83
45.78
27.81
5.89
-19.48
-47.40
-76.21
-103.67
-126.76
-142.96
-151.47
-153.57
-152.40
-151.44
-153.13
-157.73
-163.28
-166.18
-162.67
-150.19
-128.06
-97.63
-61.98
-25.48
6.96
30.74
42.73
41.96
30.07
10.93
-10.40
-28.90
-40.82
-44.29
-39.36
-27.52
-10.99
7.86
26.99
44.84
60.35
72.96
82.41
88.73
92.06
92.60
90.59
86.37
80.42
73.43
66.33
60.08
55.50
53.04
52.62
53.63
55.06
55.76
54.72
51.31
45.50
37.80
29.05
20.15
11.76
4.18
-2.55
-8.55
-13.82
-18.22
-21.52
-23.59
-24.55
-24.84
-25.09
-25.95
-27.83
-30.77
-34.49
-38.35
-41.58
-43.41
-43.32
-41.21
-37.58
-33.40
-29.74
-27.36
-26.27
-25.73
-24.61
-21.97
-17.60
-12.15
-6.79
-2.70
-0.56
-0.41
-1.78
-4.00
-6.48
-8.76
-10.46
-11.23
-10.73
-8.71
-5.11
-0.09
6.08
13.03
20.29
27.37
33.78
39.09
42.98
45.28
45.88
44.68
41.72
37.10
31.26
24.91
18.97
14.17
10.91
9.04
7.98
7.13
6.05
4.71
3.37
2.40
1.91
1.62
1.00
-0.39
-2.52
-4.91
-6.80
-7.54
-6.76
-4.70
-2.17
-0.08
0.92
0.84
0.21
-0.12
0.66
3.24
7.76
13.76
20.42
27.01
33.22
39.02
44.59
50.10
55.96
62.26
68.37
72.68
72.75
65.81
49.67
23.74
-11.51
-51.42
-88.23
-114.25
-125.51
-123.27
-112.30
-97.86
-83.53
-70.70
-59.14
-48.57
-39.37
-32.45
-28.48
-27.30
-27.97
-29.21
-30.00
-29.68
-28.02
-24.96
-19.97
-11.97
0.17
16.85
36.97
57.98
76.66
89.92
95.63
93.10
83.17
67.92
50.11
32.65
18.05
8.13
3.60
3.94
7.72
13.13
18.36
22.07
23.44
22.28
19.02
14.57
9.66
4.99
0.97
-2.36
-5.19
-7.78
-10.19
-12.11
-13.00
-12.31
-9.77
-5.78
-1.28
2.35
3.89
2.56
-1.54
-7.54
-14.03
-19.43
-22.60
-22.79
-20.10
-15.16
-9.02
-2.68
3.13
8.11
12.42
16.11
19.33
21.50
21.67
18.84
12.48
2.96
-8.45
-19.76
-29.22
-35.22
-37.57
-37.16
-35.80
-35.81
-39.58
-49.50
-64.95
-85.97
-107.31
-123.41
-129.49
-123.83
-108.13
-85.98
-61.02
-35.86
-12.35
8.74
26.38
39.62
47.78
51.05
50.65
48.62
47.15
47.61
50.59
55.31
60.32
64.28
66.64
67.93
69.27
71.88
75.91
80.41
83.20
81.67
73.81
58.97
38.20
13.84
-10.80
-33.17
-52.00
-67.31
-79.83
-90.56
-100.53
-110.62
-121.13
-131.06
-137.66
-136.68
-123.99
-97.93
-61.07
-19.91
17.26
43.95
57.81
61.10
58.77
55.69
54.34
54.37
53.93
51.52
47.20
42.59
39.75
40.05
43.49
48.78
53.66
56.15
55.26
51.41
46.20
41.74
39.74
40.81
44.52
49.77
55.42
60.17
62.29
59.36
48.83
29.10
0.91
-32.27
-65.13
-92.41
-111.06
-121.43
-126.66
-130.60
-135.22
-139.18
-138.31
-127.93
-105.62
-73.17
-36.19
-1.92
23.77
38.64
44.42
45.22
44.88
45.17
45.47
44.04
39.80
33.47
27.29
23.75
24.14
27.88
32.93
36.70
37.35
34.55
29.47
24.18
20.61
19.68
21.03
23.35
25.23
25.83
24.92
22.45
18.05
10.89
0.25
-13.68
-29.34
-43.83
-54.01
-57.77
-54.96
-47.11
-36.57
-25.16
-13.58
-1.53
11.33
24.60
36.81
45.91
50.25
49.33
43.92
35.56
25.68
15.07
3.85
-7.99
-19.90
-30.62
-38.51
-42.41
-42.22
-39.23
-35.63
-33.50
-34.06
-37.22
-41.76
-46.06
-48.71
-48.66
-45.34
-38.54
-28.54
-16.24
-3.38
8.01
16.44
21.85
25.73
30.09
36.02
42.69
47.54
47.86
42.68
33.83
25.22
20.98
23.59
33.04
47.32
63.39
78.00
88.22
91.38
85.49
69.97
46.51
19.28
-5.31
-20.97
-24.37
-16.92
-4.62
4.14
2.02
-14.34
-43.18
-78.52
-112.67
-139.09
-154.20
-157.96
-153.06
-143.60
-133.69
-126.59
-124.33
-127.57
-135.61
-146.58
-157.71
-165.92
-168.17
-161.94
-145.40
-117.52
-78.21
-28.61
28.39
87.89
143.35
187.94
216.44
227.14
222.65
209.23
195.04
188.08
194.60
217.95
257.79
309.67
365.22
413.74
444.96
452.15
434.48
396.87
347.71
295.25
244.94
198.81
156.72
118.15
83.32
53.01
27.73
7.05
-9.93
-23.42
-32.20
-33.96
-26.81
-11.05
9.70
28.99
39.62
36.07
16.43
-17.22
-59.93
-105.76
-149.81
-189.22
-223.40
-253.52
-281.36
-308.82
-337.55
-369.16
-405.21
-446.33
-491.04
-534.83
-570.43
-589.74
-586.79
-560.12
-513.36
-453.52
-387.86
-321.64
-257.72
-198.03
-145.40
-104.14
-78.30
-69.14
-73.47
-84.11
-92.73
-93.11
-83.30
-65.42
-44.18
-24.55
-10.12
-2.62
-1.92
-6.58
-14.21
-22.28
-29.07
-34.49
-40.12
-47.93
-58.78
-71.20
-81.56
-85.87
-81.67
-69.41
-51.96
-32.98
-14.99
1.49
17.47
34.07
51.56
68.99
84.89
98.39
109.93
121.14
134.20
151.09
172.90
199.33
228.51
257.32
282.13
300.09
310.08
313.14
311.76
308.56
304.97
300.73
294.48
284.90
271.75
255.95
238.89
221.35
202.89
182.12
157.72
129.58
99.21
69.33
42.86
21.75
6.29
-4.68
-13.01
-20.15
-26.60
-31.95
-35.53
-37.05
-37.02
-36.40
-36.04
-36.14
-36.12
-35.01
-32.17
-27.67
-22.29
-17.08
-12.82
-9.57
-6.79
-3.61
0.68
6.35
13.25
20.92
28.89
36.75
44.15
50.77
56.29
60.39
62.85
63.65
62.99
61.18
58.65
55.77
52.85
50.03
47.22
44.24
40.85
37.00
32.80
28.53
24.39
20.42
16.38
11.83
6.38
-0.14
-7.51
-15.20
-22.51
-28.78
-33.59
-36.85
-38.76
-39.73
-40.27
-40.90
-41.97
-43.68
-46.04
-48.82
-51.61
-53.95
-55.40
-55.73
-55.02
-53.59
-51.82
-50.01
-48.26
-46.51
-44.59
-42.37
-39.80
-36.83
-33.38
-29.36
-24.62
-19.18
-13.19
-6.94
-0.72
5.31
11.25
17.35
23.90
31.04
38.73
46.75
54.78
62.46
69.29
74.63
77.77
78.15
75.71
71.01
65.17
59.45
54.68
50.94
47.48
43.14
36.77
27.79
16.22
2.62
-12.26
-27.74
-43.21
-58.08
-71.60
-82.76
-90.50
-94.13
-93.60
-89.75
-84.04
-78.09
-73.09
-69.49
-66.97
-64.82
-62.33
-59.10
-55.11
-50.55
-45.62
-40.31
-34.44
-27.77
-20.14
-11.66
-2.71
6.12
14.25
21.25
26.93
31.33
34.58
36.82
38.28
39.25
40.11
41.28
43.04
45.39
47.96
50.06
51.01
50.37
48.20
45.00
41.52
38.31
35.52
33.01
30.51
27.99
25.58
23.36
20.99
17.72
12.57
4.88
-5.20
-16.69
-28.11
-38.00
-45.43
-50.12
-52.34
-52.63
-51.65
-49.98
-48.06
-46.16
-44.33
-42.45
-40.24
-37.48
-34.11
-30.30
-26.35
-22.66
-19.51
-16.96
-14.82
-12.75
-10.43
-7.70
-4.70
-1.76
0.76
2.60
3.73
4.24
4.24
3.76
2.80
1.42
-0.17
-1.59
-2.35
-2.02
-0.25
3.12
8.02
14.10
20.63
26.66
31.17
33.49
33.49
31.57
28.49
24.93
21.32
17.74
14.22
10.85
7.87
5.56
4.00
3.06
2.41
1.75
0.94
-0.03
-1.05
-2.05
-2.98
-3.80
-4.50
-5.02
-5.39
-5.73
-6.17
-6.82
-7.71
-8.76
-9.91
-11.07
-12.20
-13.21
-13.93
-14.09
-13.43
-11.77
-9.13
-5.82
-2.33
0.76
2.94
3.89
3.53
2.07
0.00
-1.99
-3.14
-2.87
-1.02
2.02
5.47
8.31
9.76
9.68
8.60
7.58
7.75
9.70
13.35
17.87
22.08
24.92
25.79
24.64
21.91
18.20
14.00
9.62
5.21
0.90
-3.09
-6.46
-8.93
-10.35
-10.69
-10.11
-8.81
-7.02
-4.97
-2.81
-0.65
1.41
3.34
5.11
6.69
8.05
9.10
9.80
10.14
10.15
9.89
9.40
8.65
7.54
5.99
4.00
1.64
-0.92
-3.50
-6.00
-8.45
-10.97
-13.69
-16.54
-19.23
-21.27
-22.19
-21.85
-20.59
-19.18
-18.50
-19.08
-20.76
-22.69
-23.62
-22.55
-19.25
-14.41
-9.31
-5.25
-2.86
-1.80
-0.82
1.62
6.64
14.35
23.68
32.51
38.19
38.23
31.24
17.83
1.22
-12.95
-17.97
-8.44
17.36
56.22
100.62
141.19
170.14
183.85
183.78
175.24
165.02
158.78
159.72
168.29
182.71
199.73
215.33
225.46
227.02
219.10
203.33
184.07
166.65
155.10
150.03
147.87
142.01
125.57
94.52
48.64
-7.80
-68.12
-125.73
-175.95
-216.85
-248.69
-272.83
-290.35
-303.27
-313.60
-323.93
-336.73
-352.84
-370.17
-383.34
-385.46
-370.24
-336.66
-288.11
-231.39
-173.39
-117.84
-64.36
-10.56
40.12
87.57
122.69
137.01
127.50
99.87
67.21
44.55
42.71
64.74
107.04
161.40
220.48
278.65
331.06
371.96
394.45
392.72
365.42
318.09
260.72
205.32
161.04
131.27
113.46
100.66
84.14
56.00
11.85
-48.23
-118.19
-187.04
-241.47
-269.67
-265.62
-231.74
-178.69
-121.72
-75.88
-50.75
-48.06
-63.04
-85.97
-105.54
-113.06
-105.67
-86.21
-60.56
-33.89
-8.91
14.07
35.14
52.55
62.85
62.18
47.99
19.14
-24.40
-81.60
-148.71
-218.75
-281.58
-325.92
-343.03
-330.17
-292.71
-242.40
-192.95
-154.61
-131.19
-119.69
-113.55
-107.73
-98.64
-85.86
-70.57
-54.10
-36.96
-19.10
0.25
21.93
47.25
78.18
115.96
159.90
205.71
245.89
269.71
268.80
240.89
192.33
137.58
93.52
72.88
78.67
103.30
132.26
151.14
151.41
131.06
96.40
57.80
25.10
3.21
-8.52
-13.53
-14.34
-10.88
-1.95
13.76
33.38
50.57
57.59
48.72
22.04
-20.92
-76.84
-142.24
-211.19
-276.20
-328.40
-360.35
-368.62
-355.22
-327.18
-294.22
-265.08
-244.13
-232.52
-225.97
-219.45
-209.00
-192.10
-167.97
-137.40
-101.94
-63.29
-22.81
19.15
62.88
109.29
158.45
210.46
265.02
320.27
371.83
412.66
434.76
432.24
405.45
364.05
323.62
299.52
299.52
319.80
346.76
363.82
359.24
325.26
266.42
195.13
125.47
66.76
20.93
-14.67
-42.87
-63.83
-75.70
-74.88
-63.12
-47.08
-35.82
-37.50
-56.46
-92.91
-143.86
-204.83
-267.81
-323.73
-363.79
-381.89
-376.99
-353.28
-319.25
-284.42
-255.82
-235.80
-223.17
-215.08
-208.96
-204.71
-201.58
-198.21
-192.01
-179.40
-157.00
-123.39
-79.76
-29.41
22.83
72.99
118.16
156.81
189.30
217.70
244.93
270.84
295.36
318.43
341.31
364.90
388.39
408.57
420.14
417.43
396.73
358.47
302.95
237.29
171.47
114.26
70.38
40.01
20.79
11.59
10.38
14.66
21.66
26.39
21.68
0.16
-43.44
-108.33
-186.71
-264.02
-326.53
-364.76
-373.39
-355.20
-319.69
-279.73
-247.27
-230.89
-234.62
-257.64
-294.55
-336.86
-374.82
-398.39
-398.94
-370.87
-313.63
-232.30
-136.01
-35.70
58.02
136.53
194.64
231.09
248.12
250.20
243.11
233.52
228.01
231.56
246.03
269.49
296.53
319.65
331.63
323.94
293.56
244.08
184.50
125.62
75.55
37.27
9.96
-8.53
-19.37
-22.42
-17.16
-6.43
4.16
7.90
-1.03
-25.68
-65.35
-115.41
-167.78
-211.44
-237.07
-240.83
-225.98
-201.38
-177.41
-161.58
-156.09
-158.19
-162.79
-166.07
-167.18
-166.35
-163.64
-158.00
-147.51
-130.43
-106.49
-77.06
-45.00
-13.30
16.37
43.86
70.13
96.35
123.65
150.17
173.76
192.39
204.95
212.04
215.84
219.95
228.22
243.79
266.36
291.64
311.66
317.43
302.60
266.03
212.59
147.90
81.11
20.67
-28.00
-63.59
-87.53
-101.91
-108.37
-108.11
-102.76
-94.28
-85.35
-78.37
-74.48
-73.38
-73.44
-72.87
-70.55
-66.39
-60.76
-54.66
-49.14
-44.82
-41.62
-38.90
-36.06
-32.66
-28.68
-24.18
-19.53
-15.18
-11.58
-9.01
-7.41
-6.66
-6.26
-5.40
-3.16
1.24
7.95
16.29
24.73
31.69
35.15
33.81
27.37
16.50
2.10
-15.00
-34.49
-56.25
-79.85
-105.21
-132.15
-160.42
-189.33
-217.19
-240.63
-254.75
-256.03
-240.69
-209.25
-166.53
-119.97
-76.58
-40.41
-11.60
12.50
34.66
56.55
77.43
95.35
108.72
117.39
122.46
125.33
126.70
126.40
124.11
119.24
112.02
103.40
94.76
87.26
81.46
77.11
73.47
70.01
66.26
62.27
58.33
54.79
51.72
48.91
46.10
43.23
40.68
38.93
38.80
40.02
42.00
43.76
44.54
44.01
42.60
41.36
41.29
43.16
47.23
53.55
61.72
70.55
77.73
80.07
74.88
60.59
38.76
13.64
-9.41
-26.49
-36.90
-43.10
-48.85
-56.59
-65.98
-74.05
-77.26
-73.71
-64.32
-52.37
-41.71
-34.89
-32.33
-32.73
-33.87
-34.20
-33.39
-32.33
-32.50
-35.09
-40.50
-48.15
-56.63
-64.13
-68.86
-69.38
-65.00
-55.89
-43.07
-28.25
-13.51
-0.78
8.51
13.84
15.61
14.95
13.26
11.93
11.97
13.85
17.45
22.00
26.52
30.24
32.93
35.08
37.67
41.66
47.33
53.93
59.71
62.99
62.99
60.35
56.87
54.68
55.35
59.09
66.22
75.18
83.58
89.13
90.03
85.49
75.74
62.06
46.61
32.07
20.93
14.99
14.87
19.50
26.42
32.30
34.10
29.85
19.21
3.36
-15.21
-33.38
-48.18
-57.39
-60.05
-56.51
-48.27
-37.55
-26.79
-17.90
-12.11
-10.05
-11.93
-17.76
-27.18
-39.12
-51.68
-62.26
-68.35
-68.22
-61.64
-49.96
-35.90
-22.75
-13.82
-11.92
-19.04
-35.93
-61.42
-91.94
-121.71
-144.09
-153.47
-147.21
-126.54
-95.75
-60.33
-24.69
9.10
41.21
72.63
103.54
132.47
156.65
173.34
181.22
180.92
174.42
163.93
150.45
133.09
109.38
76.19
30.87
-27.85
-99.05
-179.05
-261.06
-335.60
-391.89
-420.44
-415.97
-379.54
-318.82
-246.08
-174.82
-116.06
-75.94
-55.29
-51.00
-58.60
-74.35
-96.33
-123.78
-155.56
-188.55
-217.16
-234.50
-234.77
-215.85
-180.03
-132.93
-80.75
-27.69
25.14
78.90
134.58
190.96
244.24
289.56
323.36
345.13
357.33
363.90
368.14
371.44
373.63
374.19
373.30
371.84
370.44
368.39
363.20
351.28
329.19
294.97
248.59
191.79
127.42
58.86
-10.53
-77.66
-139.87
-195.01
-241.34
-277.36
-301.75
-313.43
-311.89
-297.55
-272.07
-238.63
-202.01
-168.57
-145.63
-140.32
-157.72
-198.70
-258.43
-326.34
-388.03
-428.92
-438.37
-413.14
-358.71
-287.93
-217.12
-160.92
-127.75
-117.64
-123.33
-133.91
-139.33
-133.77
-116.40
-89.85
-57.56
-21.81
16.89
59.03
104.77
153.20
202.61
251.38
298.59
344.02
387.57
428.90
467.12
501.00
528.90
548.77
558.39
556.01
541.49
516.95
486.38
453.99
422.04
389.42
352.20
305.86
247.90
179.81
106.85
36.06
-26.41
-77.29
-117.01
-149.02
-178.29
-209.51
-245.42
-285.50
-325.70
-359.30
-378.67
-377.64
-353.70
-309.13
-251.19
-190.72
-140.29
-111.29
-110.86
-139.21
-188.48
-243.88
-287.48
-303.72
-284.95
-234.61
-166.27
-99.14
-51.94
-37.19
-58.22
-109.09
-177.26
-247.44
-305.53
-341.55
-351.14
-335.64
-300.87
-254.97
-205.95
-159.96
-120.35
-87.69
-60.43
-35.83
-10.60
18.77
54.97
99.52
152.31
211.82
275.72
341.18
404.80
462.70
510.67
544.86
563.10
565.83
555.83
536.85
511.59
480.36
441.55
393.28
335.32
270.21
202.75
137.94
79.21
27.29
-19.43
-62.96
-104.92
-146.60
-189.04
-233.52
-281.02
-330.67
-378.38
-416.95
-437.21
-431.91
-399.49
-344.49
-276.05
-204.63
-138.63
-82.61
-38.34
-5.30
16.39
24.44
16.87
-6.15
-41.52
-84.00
-128.02
-169.43
-203.88
-227.48
-237.34
-230.28
-204.43
-161.03
-105.27
-42.33
13.80
52.57
76.30
88.18
92.39
92.93
93.13
95.85
103.82
119.16
144.79
182.73
231.93
289.25
348.97
403.54
445.03
467.42
468.45
451.91
425.54
396.86
370.87
347.91
324.15
293.59
250.82
193.53
124.14
48.62
-26.16
-93.84
-149.93
-192.04
-220.58
-239.10
-253.31
-269.66
-293.00
-324.86
-362.02
-396.57
-417.54
-415.45
-386.50
-334.37
-269.74
-206.88
-159.53
-137.30
-142.93
-171.78
-207.48
-230.81
-227.00
-194.68
-144.69
-91.52
-46.13
-15.79
4.51
20.55
36.50
55.26
78.55
107.80
141.93
174.15
195.02
198.43
184.27
157.77
126.13
94.33
65.01
40.21
19.26
3.18
-5.08
-3.25
8.87
30.13
57.90
91.23
130.34
175.29
224.65
274.46
317.97
347.34
357.36
345.47
314.37
270.56
219.50
163.81
103.74
38.67
-31.19
-102.88
-173.96
-240.36
-288.14
-303.45
-281.55
-230.34
-164.81
-106.48
-59.26
-25.49
-6.42
-1.81
-9.44
-26.85
-48.46
-65.59
-69.97
-57.27
-33.98
-11.67
-1.73
-11.71
-42.84
-89.26
-140.55
-186.64
-221.50
-248.08
-271.28
-293.22
-312.20
-323.88
-322.77
-304.49
-268.07
-204.68
-122.14
-40.79
19.45
51.35
60.43
57.16
49.53
41.55
32.10
18.23
1.37
-12.22
-15.02
-2.57
25.21
63.86
107.38
150.90
190.79
227.37
264.48
306.90
357.23
414.19
472.42
523.36
557.47
565.75
543.38
491.42
416.13
326.72
232.89
142.64
60.88
-9.96
-70.16
-121.63
-166.22
-205.14
-237.68
-261.31
-273.10
-272.03
-258.79
-236.66
-210.31
-183.73
-159.83
-140.28
-127.37
-125.78
-141.21
-174.79
-220.55
-266.28
-297.42
-304.52
-286.99
-253.78
-210.11
-166.71
-131.91
-107.16
-94.03
-86.87
-82.86
-81.03
-76.81
-66.28
-45.12
-9.79
38.60
92.55
137.07
157.67
150.82
131.32
111.67
99.67
99.01
107.30
121.28
137.68
154.84
173.83
197.40
226.79
262.36
303.42
347.22
388.95
420.65
433.69
421.91
383.76
321.88
243.56
158.60
76.12
2.59
-61.25
-118.17
-171.31
-221.52
-267.02
-302.98
-323.09
-322.05
-297.59
-255.28
-206.46
-164.80
-141.01
-140.46
-162.37
-201.40
-250.10
-289.16
-301.75
-280.77
-233.74
-174.00
-111.64
-51.53
3.06
45.68
74.72
86.88
81.99
65.36
48.14
41.93
52.26
76.02
101.04
113.58
102.72
66.11
9.66
-54.20
-111.98
-154.16
-176.34
-177.53
-157.31
-117.71
-58.00
10.57
69.42
103.81
110.87
98.28
76.92
56.11
41.12
30.19
20.17
10.98
5.71
8.00
19.67
40.26
67.80
100.04
134.12
166.18
192.81
210.96
217.45
209.51
185.56
147.41
99.01
44.65
-11.92
-65.23
-108.16
-133.28
-135.30
-113.70
-72.19
-18.69
36.82
80.22
101.20
99.48
84.13
70.53
64.08
64.94
70.69
78.12
82.56
81.07
71.41
51.75
21.22
-19.83
-68.68
-122.31
-178.92
-237.45
-294.69
-343.81
-374.80
-377.49
-346.43
-283.77
-201.02
-116.57
-49.89
-14.69
-15.51
-47.63
-99.86
-158.61
-210.31
-244.08
-253.24
-235.64
-193.32
-132.06
-60.07
13.78
81.66
138.86
184.45
220.47
250.72
279.27
308.54
338.44
366.34
388.46
401.88
406.04
402.28
392.69
378.67
359.48
332.57
294.98
245.23
184.81
118.63
52.89
-5.90
-52.02
-81.86
-94.41
-91.87
-79.64
-65.38
-57.06
-62.33
-85.30
-124.15
-171.52
-216.64
-249.57
-265.21
-265.00
-255.23
-245.88
-245.18
-251.87
-259.99
-260.39
-247.46
-224.28
-205.10
-195.65
-195.96
-201.03
-203.12
-193.93
-169.66
-131.74
-85.98
-39.67
2.34
37.49
66.76
93.53
120.95
149.95
178.81
204.15
223.00
234.83
240.34
241.64
241.60
242.69
245.95
250.55
254.06
253.38
246.29
231.33
208.59
179.41
145.47
107.84
66.88
22.72
-23.69
-69.78
-112.25
-147.90
-175.00
-194.39
-209.40
-224.18
-241.52
-260.87
-277.75
-285.31
-276.91
-249.11
-203.58
-147.11
-89.58
-40.92
-7.98
7.08
6.63
-4.04
-19.13
-34.05
-46.00
-53.42
-55.09
-49.57
-35.59
-12.91
17.02
50.97
84.83
114.95
139.11
156.78
168.72
176.18
180.22
181.55
180.57
177.62
173.22
167.94
162.31
156.52
150.29
142.93
133.67
121.78
106.99
89.49
69.87
49.05
27.93
7.17
-12.89
-32.07
-50.28
-67.35
-82.87
-96.16
-106.25
-112.05
-112.65
-107.59
-96.98
-81.81
-63.69
-44.61
-26.52
-10.74
2.09
11.97
19.31
24.73
28.77
31.77
33.92
35.29
36.22
37.02
37.94
39.41
42.15
46.81
53.47
61.38
68.85
74.35
76.35
74.00
67.92
60.45
54.72
53.24
56.72
63.62
71.24
75.40
71.62
57.07
32.21
1.05
-29.96
-53.48
-63.11
-54.36
-27.82
10.14
49.44
79.63
92.96
86.02
60.34
16.15
-37.29
-85.21
-115.85
-126.68
-122.43
-109.30
-91.70
-71.65
-50.04
-26.89
-3.73
16.27
30.32
37.09
36.91
31.14
21.14
7.48
-9.17
-27.99
-48.16
-68.83
-88.86
-107.24
-123.77
-138.85
-152.41
-161.82
-162.46
-149.69
-120.93
-77.37
-24.40
29.63
75.51
105.50
115.17
103.77
73.56
29.72
-20.12
-68.54
-108.51
-135.42
-148.05
-147.93
-138.07
-121.18
-98.94
-72.57
-43.41
-13.72
13.57
35.54
49.95
55.15
50.03
34.60
10.64
-16.02
-37.45
-46.26
-38.82
-17.13
11.87
39.28
58.06
65.44
63.26
56.13
48.64
43.58
41.42
41.03
40.82
39.66
36.75
32.04
25.98
19.37
13.38
9.51
9.39
13.67
21.84
31.17
37.35
36.12
25.52
7.75
-11.41
-24.80
-27.23
-18.39
-3.31
9.76
13.39
4.63
-13.28
-32.41
-43.30
-39.01
-17.94
14.88
49.63
75.15
82.95
70.38
41.15
3.57
-31.85
-54.56
-59.33
-47.50
-24.83
2.34
29.76
55.15
78.82
99.52
113.59
116.43
104.82
78.34
39.46
-7.35
-56.63
-103.52
-143.68
-172.46
-185.24
-178.78
-153.33
-113.57
-67.68
-24.70
8.69
29.95
40.64
44.27
44.13
42.13
39.08
35.55
32.16
29.41
27.27
25.56
24.28
24.29
26.26
30.09
33.46
31.84
20.14
-5.24
-43.36
-89.45
-135.95
-174.85
-198.75
-201.82
-180.57
-135.78
-73.93
-6.91
50.26
84.75
91.01
73.48
44.07
18.18
6.73
12.04
28.88
48.17
62.87
68.84
64.52
49.98
26.84
-1.55
-30.14
-52.14
-62.60
-60.91
-51.21
-40.35
-34.51
-36.43
-44.98
-56.64
-66.68
-71.34
-68.48
-57.80
-40.61
-19.27
3.56
24.99
42.94
56.84
67.17
75.40
83.17
91.95
102.75
116.54
133.53
153.00
173.20
191.32
204.14
208.89
203.93
186.25
155.49
112.91
61.41
5.82
-46.69
-87.01
-106.61
-101.49
-75.08
-38.11
-5.45
9.65
0.74
-29.42
-70.68
-108.92
-131.65
-133.18
-116.22
-88.29
-56.54
-24.40
7.79
40.46
71.79
95.80
105.15
94.53
62.79
12.88
-49.59
-118.14
-184.03
-238.51
-275.09
-291.11
-288.72
-273.45
-251.76
-228.39
-205.56
-183.44
-162.54
-146.29
-137.08
-136.05
-141.10
-147.11
-147.40
-136.43
-111.31
-72.83
-24.67
28.68
82.35
132.33
173.50
202.89
221.49
234.92
249.74
269.21
291.15
308.47
313.59
303.23
281.28
257.91
245.42
250.59
271.08
296.81
314.71
315.18
295.07
257.76
205.13
144.63
85.41
35.21
-2.24
-27.44
-42.48
-47.58
-45.53
-40.28
-36.55
-40.71
-59.04
-95.26
-149.44
-214.69
-278.06
-325.85
-348.77
-345.29
-322.72
-292.68
-265.09
-246.58
-234.50
-223.60
-210.31
-193.18
-171.58
-145.34
-113.70
-75.31
-30.52
19.08
69.17
113.43
146.57
166.77
175.82
179.20
184.76
200.28
231.23
277.51
332.07
379.22
403.09
393.29
350.56
287.23
221.24
168.02
137.61
124.37
116.90
104.52
80.13
41.41
-9.58
-68.55
-127.37
-175.87
-205.66
-212.77
-200.54
-179.74
-164.68
-167.36
-193.39
-239.78
-296.63
-351.80
-394.53
-418.30
-421.90
-407.96
-380.77
-345.28
-305.46
-263.08
-217.81
-167.83
-109.33
-43.39
20.89
75.71
115.85
140.44
154.52
166.78
185.55
215.22
254.71
298.19
338.16
367.35
380.88
376.85
355.56
318.80
265.07
199.13
130.99
72.76
32.74
13.36
12.01
24.49
44.25
63.80
75.80
73.51
52.57
12.00
-45.38
-111.18
-171.73
-213.28
-227.80
-216.44
-189.37
-160.27
-140.10
-132.42
-133.15
-135.89
-133.92
-124.00
-105.95
-81.21
-51.40
-18.44
15.11
45.85
68.51
78.11
72.99
56.72
36.84
21.10
13.91
15.57
23.75
35.29
48.21
61.89
74.21
81.64
79.91
65.28
35.71
-8.64
-65.39
-129.22
-190.97
-240.67
-270.43
-277.83
-266.82
-245.87
-223.97
-208.86
-200.10
-193.95
-186.65
-176.00
-162.35
-147.54
-133.31
-119.65
-105.24
-87.78
-66.03
-41.77
-17.68
3.16
18.52
27.74
32.57
35.70
40.20
48.09
60.08
76.01
94.89
115.26
135.98
157.75
181.52
208.41
239.01
273.32
311.24
352.67
397.32
444.32
492.60
537.83
572.61
588.27
578.13
540.65
480.30
406.19
319.61
226.86
135.21
51.54
-18.96
-73.20
-110.37
-131.86
-141.25
-143.14
-140.39
-135.22
-128.43
-119.68
-108.23
-93.98
-77.29
-61.38
-50.20
-45.97
-49.84
-61.53
-79.89
-103.40
-130.76
-160.00
-189.91
-219.67
-248.17
-274.98
-299.73
-321.35
-337.06
-342.10
-331.37
-302.19
-256.28
-200.00
-143.13
-95.20
-62.29
-45.21
-40.11
-41.27
-43.98
-45.64
-45.25
-43.19
-38.80
-31.14
-19.58
-4.28
13.73
32.82
51.32
68.15
82.80
95.11
104.93
112.35
117.56
120.93
122.85
123.83
124.71
126.67
131.24
139.59
151.41
164.28
173.58
174.06
162.77
140.82
113.06
85.53
62.30
43.50
25.53
3.71
-25.00
-59.61
-95.62
-127.45
-151.74
-168.69
-181.47
-193.71
-205.48
-214.44
-215.99
-205.53
-180.86
-144.00
-100.28
-58.03
-22.14
4.17
18.58
19.70
7.21
-17.47
-51.52
-89.37
-123.65
-147.01
-156.46
-154.70
-148.08
-144.03
-144.83
-149.02
-153.25
-154.54
-150.63
-141.25
-126.90
-107.51
-82.35
-50.69
-13.42
26.80
66.16
100.79
127.71
145.99
157.25
165.15
174.27
188.23
208.43
233.40
258.70
277.58
282.92
269.53
236.13
186.21
127.17
68.39
18.25
-18.21
-40.53
-51.99
-57.59
-61.99
-67.95
-76.23
-85.98
-95.46
-102.27
-103.58
-96.59
-79.30
-51.55
-15.31
25.56
66.42
102.88
131.47
149.78
156.57
151.72
136.44
113.14
84.81
54.35
24.10
-3.75
-26.67
-42.25
-49.70
-51.24
-51.99
-57.70
-71.14
-89.47
-104.54
-106.33
-87.65
-47.00
11.84
82.96
161.56
244.65
329.10
408.77
473.69
512.85
519.43
495.00
449.65
397.79
351.77
316.77
289.70
262.34
226.60
179.06
122.48
63.76
10.55
-31.90
-62.02
-81.48
-93.58
-101.78
-109.01
-117.87
-131.14
-151.56
-180.59
-216.81
-254.75
-285.76
-300.93
-295.24
-270.50
-235.58
-203.06
-184.21
-184.63
-202.71
-231.76
-264.22
-295.44
-324.79
-353.62
-381.63
-404.59
-415.02
-405.71
-374.06
-324.62
-268.04
-216.68
-179.45
-158.36
-148.93
-143.50
-135.48
-122.22
-105.27
-88.18
-73.68
-61.82
-49.65
-32.59
-6.28
32.24
84.03
148.40
222.96
303.39
383.05
452.86
502.52
523.22
511.32
470.78
412.84
352.23
301.37
265.58
241.66
220.12
190.47
146.23
87.33
19.06
-51.28
-117.79
-177.26
-226.73
-262.49
-280.36
-277.24
-253.32
-212.84
-163.24
-113.07
-69.08
-34.63
-9.60
8.66
23.58
37.74
51.86
64.97
75.08
80.95
82.98
82.94
83.56
87.12
94.37
104.06
114.04
120.50
120.47
112.73
97.82
77.29
52.79
25.34
-4.71
-36.67
-70.19
-104.72
-139.58
-173.70
-204.91
-229.45
-242.23
-238.30
-215.47
-176.41
-128.32
-80.92
-42.86
-18.55
-7.29
-4.81
-6.02
-8.04
-11.01
-16.40
-25.28
-36.87
-48.58
-57.43
-61.50
-60.67
-56.65
-52.48
-49.28
-46.47
-41.79
-32.29
-15.76
8.40
39.29
74.53
110.99
145.19
172.95
189.64
191.11
175.41
143.11
101.00
58.55
24.49
3.82
-3.21
0.04
9.06
20.37
32.26
44.22
55.27
63.83
68.31
68.39
65.65
62.80
62.66
66.78
74.62
83.44
90.06
91.14
85.16
72.64
55.28
35.11
13.40
-9.53
-34.13
-60.87
-90.16
-121.80
-154.58
-185.94
-211.60
-226.27
-225.17
-206.51
-173.09
-132.17
-92.96
-63.28
-46.92
-42.84
-46.70
-53.52
-59.77
-64.34
-67.52
-69.87
-70.41
-67.49
-59.83
-47.23
-30.88
-12.75
4.87
20.36
33.03
43.04
50.97
57.51
63.21
68.37
72.98
76.78
79.37
80.30
79.28
76.30
71.87
66.94
62.70
60.03
59.14
59.33
59.27
57.62
53.61
47.51
40.61
34.75
31.70
32.72
38.40
48.26
60.37
70.94
74.69
66.06
41.44
1.49
-47.91
-96.77
-133.97
-151.11
-145.42
-120.21
-83.35
-43.96
-9.40
16.37
32.48
39.96
40.20
34.61
24.54
11.99
-0.33
-9.56
-14.12
-15.05
-16.17
-23.52
-41.69
-71.34
-107.80
-142.22
-164.67
-167.90
-149.92
-114.17
-67.93
-19.31
25.08
61.09
86.77
101.24
103.54
92.67
68.43
32.56
-10.25
-52.49
-85.71
-103.14
-102.28
-85.61
-59.21
-29.58
-0.84
25.90
51.28
75.23
95.61
108.78
111.45
102.97
86.04
65.67
47.00
33.49
26.27
24.68
27.27
32.42
38.75
45.16
50.95
55.97
60.58
65.24
69.75
72.91
72.57
66.66
54.59
38.43
22.89
14.40
19.21
40.99
79.35
129.39
182.88
230.62
265.02
282.18
282.52
270.10
250.87
230.67
213.77
202.21
196.09
194.15
194.56
195.39
195.13
192.82
188.22
181.72
174.17
166.55
159.40
152.58
145.12
135.44
121.64
102.47
77.65
47.96
15.21
-18.35
-50.71
-80.48
-107.14
-130.95
-152.46
-172.04
-189.72
-205.25
-218.54
-229.99
-240.77
-252.47
-266.29
-282.13
-298.12
-310.81
-316.38
-312.12
-297.52
-274.82
-248.83
-226.10
-213.42
-215.79
-234.24
-264.65
-298.37
-324.73
-334.86
-324.89
-296.83
-256.83
-212.07
-167.48
-124.34
-81.15
-35.51
14.46
70.04
132.26
201.81
277.96
357.15
432.41
495.15
538.01
557.74
556.51
540.71
518.01
494.45
472.96
453.67
435.38
417.10
398.50
379.72
360.69
340.80
319.35
295.85
270.39
243.54
216.16
188.73
161.17
132.98
103.54
72.70
41.06
9.97
-18.70
-43.19
-62.36
-75.99
-84.76
-89.91
-92.88
-94.77
-96.13
-96.87
-96.60
-94.81
-91.18
-85.62
-78.29
-69.40
-59.16
-47.74
-35.26
-21.98
-8.37
4.91
16.99
27.02
34.35
38.58
39.68
37.98
33.99
28.31
21.57
14.26
6.86
-0.24
-6.66
-12.02
-16.00
-18.46
-19.48
-19.45
-18.96
-18.70
-19.22
-20.83
-23.47
-26.83
-30.57
-34.59
-39.08
-44.59
-51.73
-60.91
-72.04
-84.43
-97.04
-108.82
-119.22
-128.44
-137.47
-147.64
-160.09
-175.20
-192.39
-210.35
-227.57
-242.96
-256.37
-268.83
-282.43
-299.95
-323.96
-355.52
-392.97
-431.48
-464.05
-483.80
-486.81
-474.22
-452.17
-430.01
-417.34
-421.12
-444.03
-483.98
-534.58
-586.42
-628.85
-652.13
-649.92
-620.89
-569.12
-502.57
-430.60
-361.31
-300.24
-250.06
-211.37
-183.42
-164.73
-153.28
-147.04
-144.49
-145.18
-149.68
-158.73
-172.21
-188.30
-203.38
-213.08
-213.64
-203.31
-182.61
-153.99
-120.55
-84.69
-47.51
-8.66
33.35
80.55
134.62
195.67
260.79
322.96
371.59
395.04
385.15
341.47
273.21
197.04
131.69
91.43
81.59
98.21
131.28
169.90
206.04
236.08
259.69
277.94
292.14
304.08
316.80
334.51
361.12
397.24
438.09
473.77
492.40
484.69
447.80
386.56
311.02
232.09
157.42
89.34
25.45
-39.11
-108.81
-185.52
-267.15
-347.83
-419.14
-472.36
-501.26
-504.23
-484.91
-450.47
-409.01
-366.90
-327.61
-292.15
-260.59
-233.12
-210.29
-192.32
-178.45
-166.82
-155.32
-142.68
-128.98
-115.54
-104.20
-96.22
-91.55
-88.78
-85.68
-80.15
-70.93
-58.03
-42.51
-25.98
-9.90
4.97
18.56
31.34
43.72
55.74
66.88
76.15
82.42
84.76
82.77
76.59
66.89
54.51
40.40
25.34
9.99
-5.02
-19.09
-31.51
-41.54
-48.46
-51.72
-50.96
-46.12
-37.44
-25.44
-10.89
5.15
21.45
36.63
49.33
58.32
62.72
62.05
56.36
46.19
32.44
16.19
-1.41
-19.28
-36.52
-52.29
-65.92
-76.82
-84.51
-88.65
-89.17
-86.25
-80.30
-71.86
-61.38
-49.14
-35.19
-19.51
-2.19
16.40
35.43
53.70
70.01
83.42
93.67
101.28
107.38
113.28
120.22
128.91
139.63
152.26
166.70
182.93
201.16
221.74
245.18
272.24
303.62
339.47
378.43
417.06
449.96
471.16
476.23
464.27
438.73
406.38
375.08
351.07
337.29
333.11
335.49
340.61
345.28
347.36
345.64
339.42
328.19
311.76
290.44
265.39
238.55
212.20
188.32
168.01
151.39
137.95
127.21
119.18
114.21
112.15
111.50
109.13
101.24
85.21
61.32
33.33
7.13
-11.60
-19.72
-17.45
-7.43
7.22
24.61
44.20
65.76
87.56
105.58
114.34
109.11
88.31
54.37
13.20
-28.30
-64.70
-93.70
-116.40
-136.39
-158.34
-186.24
-221.86
-263.68
-306.66
-343.30
-366.01
-369.80
-354.44
-324.46
-287.21
-249.78
-216.43
-187.83
-162.15
-136.98
-110.72
-82.62
-52.08
-18.18
19.90
61.83
105.18
145.59
178.23
199.29
207.55
204.47
193.44
178.37
162.60
148.25
136.23
126.57
118.77
112.08
105.81
99.42
92.62
85.30
77.35
68.61
59.06
48.91
38.67
29.06
20.59
13.28
6.53
-0.66
-9.18
-19.36
-30.78
-42.60
-53.94
-64.43
-74.23
-83.84
-93.63
-103.45
-112.61
-120.11
-125.01
-126.73
-125.25
-120.94
-114.43
-106.58
-98.22
-90.22
-83.29
-77.85
-73.94
-71.27
-69.30
-67.28
-64.41
-59.81
-52.76
-42.86
-30.32
-16.06
-1.61
11.27
21.10
26.97
28.85
27.33
23.40
18.02
11.96
5.68
-0.50
-6.25
-11.03
-14.06
-14.58
-12.07
-6.53
1.41
10.83
20.79
30.65
40.09
48.93
56.81
63.03
66.63
66.89
63.76
58.14
51.78
46.64
44.23
45.08
48.63
53.70
59.09
64.18
69.10
74.40
80.51
87.20
93.55
98.42
101.01
101.33
100.24
98.96
98.51
99.27
101.00
103.16
105.27
107.10
108.61
109.73
110.43
110.82
111.39
113.09
116.97
123.63
132.75
143.14
153.07
161.08
166.30
168.27
166.54
160.22
148.10
129.21
103.77
73.53
41.45
10.52
-17.45
-42.60
-66.77
-92.45
-121.58
-154.90
-192.13
-232.25
-273.90
-315.28
-353.73
-385.73
-408.10
-419.74
-423.14
-423.77
-427.60
-437.56
-451.37
-461.94
-460.73
-441.87
-404.94
-354.79
-298.77
-243.30
-191.63
-143.93
-99.01
-56.13
-15.71
21.19
54.28
84.66
114.59
146.00
179.11
211.68
239.26
257.04
261.86
253.64
235.46
212.23
188.76
168.05
150.78
135.97
122.37
109.51
98.03
89.02
83.18
80.00
77.88
74.87
