1648838607.00
64.000000
-0.00
-0.00
-0.00
-0.00
-0.00
-0.00
-0.00
-0.00
-0.00
-0.00
0.00
0.01
0.01
-0.00
-0.03
-0.05
-0.05
0.00
0.13
0.36
0.66
1.01
1.37
1.72
2.06
2.40
2.79
3.24
3.80
4.42
5.06
5.66
6.20
6.68
7.15
7.68
8.31
9.14
10.09
11.04
11.88
12.56
13.14
13.76
14.65
15.96
17.91
20.32
22.90
25.38
27.58
29.57
31.68
34.32
37.81
42.54
48.15
54.10
59.83
64.97
69.58
74.14
79.34
85.71
93.76
103.00
112.62
121.73
129.77
136.75
143.30
150.75
157.77
166.64
177.95
191.79
206.97
220.57
228.25
225.36
208.53
176.87
132.76
80.05
23.07
-34.94
-92.44
-149.16
-205.23
-260.37
-313.74
-363.87
-409.83
-450.91
-486.50
-515.74
-537.23
-549.22
-549.96
-538.37
-514.21
-478.68
-433.88
-382.45
-327.01
-269.81
-212.58
-156.58
-102.83
-52.19
-5.66
35.90
71.84
101.86
126.10
145.09
159.50
170.06
177.37
181.83
183.72
183.27
180.76
176.55
171.05
164.67
157.72
150.42
142.88
135.16
127.36
119.57
111.91
104.48
97.37
90.58
84.09
77.90
72.01
66.45
61.26
56.48
52.12
48.15
44.50
41.09
37.87
34.83
31.99
29.47
27.35
25.70
24.46
23.49
22.57
21.51
20.29
19.04
18.04
17.58
17.80
18.58
19.53
20.04
19.61
17.92
14.90
10.71
5.55
-0.59
-8.01
-17.23
-28.78
-42.78
-58.88
-76.22
-93.60
-109.93
-124.11
-135.31
-142.77
-145.90
-144.39
-138.87
-131.12
-123.51
-117.31
-111.14
-100.59
-79.17
-43.00
7.15
65.06
121.25
166.85
196.82
210.57
210.09
197.43
173.12
137.66
93.30
45.33
1.17
-32.55
-53.03
-62.42
-65.91
-68.20
-70.55
-69.95
-61.30
-40.92
-9.28
28.52
64.91
93.35
111.04
119.68
123.30
124.78
123.71
116.73
100.43
74.81
44.70
18.08
2.19
-0.25
7.74
19.28
27.14
27.42
20.61
10.43
1.02
-5.24
-8.51
-10.71
-13.95
-19.32
-26.29
-33.22
-38.02
-39.34
-37.22
-33.24
-29.78
-28.73
-30.42
-33.32
-34.95
-33.41
-28.63
-22.29
-16.95
-14.59
-15.57
-18.86
-22.91
-26.81
-30.39
-33.54
-35.30
-33.79
-27.16
-14.85
1.40
17.97
30.56
35.96
33.17
23.47
9.34
-6.84
-23.46
-39.64
-54.52
-66.82
-74.33
-75.46
-69.27
-56.11
-37.70
-16.56
4.51
23.16
37.86
47.68
52.36
52.50
49.34
44.48
39.51
35.37
32.82
31.71
31.53
31.68
31.86
31.82
31.27
29.85
27.33
23.86
19.89
16.14
13.14
11.24
10.43
10.41
10.71
10.65
9.48
6.54
1.67
-4.59
-10.95
-15.96
-18.70
-19.21
-18.52
-17.93
-18.50
-20.33
-22.55
-23.70
-22.47
-18.22
-11.28
-2.84
5.29
11.23
13.55
11.74
6.47
-0.60
-7.50
-12.69
-15.52
-16.31
-15.79
-14.55
-12.84
-10.42
-6.95
-2.37
2.94
8.31
13.09
16.96
19.94
22.15
23.70
24.81
25.68
26.56
27.78
29.68
32.49
36.15
40.06
43.42
45.61
46.36
45.90
44.75
43.39
41.86
41.29
41.72
42.80
43.95
44.69
44.66
43.65
41.42
37.76
32.40
24.96
15.26
3.47
-9.92
-24.14
-38.23
-51.34
-62.79
-72.28
-80.01
-86.30
-91.41
-95.34
-97.82
-98.38
-96.52
-91.92
-84.49
-74.47
-62.17
-47.81
-31.56
-13.60
5.66
25.36
44.17
60.48
72.70
79.86
81.93
79.81
74.92
68.54
61.24
52.91
43.12
31.80
19.75
8.49
-0.32
-5.74
-8.20
-9.38
-11.66
-17.08
-26.53
-39.26
-53.00
-64.64
-71.21
-70.75
-62.92
-48.89
-30.78
-10.86
8.91
26.94
42.07
53.49
60.78
64.09
64.28
62.75
61.01
60.02
59.71
59.37
58.25
56.13
53.43
50.87
49.07
48.21
48.00
47.41
45.62
42.37
37.97
32.96
27.82
22.85
18.19
13.90
8.72
1.88
-6.41
-15.00
-22.61
-28.42
-32.24
-34.35
-35.46
-38.87
-46.98
-59.94
-75.79
-92.01
-106.63
-118.54
-127.33
-133.24
-140.86
-153.66
-172.13
-193.93
-216.22
-237.17
-255.91
-271.99
-285.16
-300.31
-320.59
-345.26
-370.20
-391.09
-405.87
-414.71
-419.10
-389.73
-314.70
-204.57
-85.56
20.26
104.02
166.28
211.01
242.61
265.02
276.42
275.70
264.36
246.22
224.69
201.72
178.74
157.80
141.36
127.59
114.96
103.36
95.01
92.56
97.50
109.24
126.03
145.15
160.74
168.05
161.09
138.58
104.85
68.95
40.90
27.48
29.77
42.48
59.50
74.96
86.24
93.22
97.26
100.29
104.19
110.13
114.79
116.92
115.57
110.60
102.13
90.46
75.67
57.54
35.47
9.92
-16.37
-39.90
-57.63
-69.05
-76.76
-85.13
-97.85
-116.04
-136.95
-154.89
-164.86
-164.38
-153.17
-130.90
-95.80
-43.05
24.38
92.69
142.53
159.63
142.50
102.18
56.35
21.18
4.89
5.74
15.96
27.65
36.31
41.29
44.06
46.24
48.69
49.55
46.52
38.79
27.89
17.15
9.89
7.85
10.63
15.83
20.30
21.52
18.92
14.19
10.17
9.05
10.89
14.60
17.02
15.03
7.21
-5.15
-18.66
-29.45
-35.21
-36.08
-34.16
-32.33
-32.63
-35.66
-40.85
-47.21
-54.02
-61.08
-68.21
-74.85
-80.19
-83.51
-85.05
-85.91
-87.63
-91.23
-96.49
-101.64
-103.61
-99.15
-85.85
-63.44
-33.26
2.33
40.46
78.12
112.53
141.74
164.68
181.16
190.38
192.25
187.71
178.15
164.62
147.36
126.20
100.90
71.72
37.93
0.62
-36.73
-69.60
-94.75
-111.67
-122.04
-128.97
-135.55
-146.15
-162.51
-182.86
-203.30
-220.28
-231.73
-236.40
-233.70
-208.25
-155.52
-84.94
-13.67
45.19
86.71
111.08
120.61
117.79
105.43
84.57
58.00
30.81
8.46
-5.80
-13.77
-16.65
-15.75
-11.55
-5.64
1.25
9.34
18.74
28.25
35.85
40.35
41.68
41.00
38.57
34.71
30.88
28.67
29.39
33.67
41.62
51.94
62.03
67.96
65.77
54.34
37.13
20.67
10.49
8.57
13.03
20.47
27.78
33.51
38.02
42.36
47.08
51.66
55.27
57.07
57.29
56.75
56.53
57.48
59.75
62.62
64.66
64.48
60.85
53.74
43.87
32.29
19.99
7.57
-5.05
-18.40
-31.05
-43.48
-55.29
-65.55
-73.19
-77.48
-78.44
-76.87
-74.15
-71.62
-70.37
-70.34
-70.74
-70.59
-69.22
-66.54
-63.16
-60.07
-58.07
-57.81
-59.30
-62.29
-66.35
-70.50
-73.11
-71.98
-65.41
-53.19
-37.35
-21.50
-9.52
-3.70
-3.74
-7.07
-10.30
-11.40
-10.44
-9.33
-9.88
-12.33
-14.83
-14.51
-9.86
-0.69
10.40
19.70
24.07
22.49
16.10
7.50
-0.50
-5.69
-6.58
-2.73
5.61
17.37
30.75
43.33
52.53
56.24
53.50
45.05
33.03
20.69
11.22
6.78
7.78
12.97
20.31
28.15
36.06
44.52
54.22
64.97
75.30
82.99
86.10
83.72
76.20
64.72
50.58
34.99
18.80
2.52
-13.44
-28.87
-43.74
-58.10
-71.87
-84.66
-95.70
-103.98
-108.61
-108.95
-104.96
-97.43
-88.12
-79.62
-75.03
-77.23
-87.35
-104.79
-126.17
-145.68
-156.64
-153.86
-135.79
-105.44
-69.38
-35.32
-9.22
6.75
14.33
17.48
19.96
23.48
27.19
28.64
25.54
17.13
4.99
-7.51
-16.36
-18.35
-12.11
1.44
19.37
37.67
52.44
61.16
63.29
60.24
54.53
48.66
44.20
41.60
40.66
41.26
44.01
50.05
60.54
75.88
95.44
117.69
140.80
163.21
184.04
203.11
220.84
237.90
254.62
270.53
283.97
292.20
292.21
281.74
260.04
227.99
187.48
140.76
90.38
39.57
-7.29
-45.05
-69.24
-78.05
-73.57
-61.40
-48.59
-40.81
-40.45
-46.24
-54.51
-61.19
-63.43
-60.15
-51.80
-39.70
-25.53
-11.24
1.04
9.18
11.55
7.54
-1.96
-14.80
-28.15
-39.47
-47.43
-52.24
-55.33
-58.57
-63.33
-69.84
-77.08
-83.20
-86.27
-84.88
-78.60
-67.94
-54.19
-39.08
-24.45
-11.91
-2.39
4.19
9.08
14.42
22.51
34.79
51.20
70.09
89.02
105.72
118.84
127.99
133.10
133.83
129.18
117.91
99.31
73.93
44.04
13.41
-13.58
-33.14
-43.39
-45.10
-41.47
-37.14
-36.47
-42.14
-54.68
-73.24
-96.96
-125.87
-160.59
-200.97
-244.63
-286.61
-320.25
-339.25
-339.72
-321.18
-286.43
-240.24
-187.96
-134.69
-85.32
-44.05
-14.23
2.34
6.03
-0.72
-13.61
-27.42
-37.51
-41.48
-38.98
-31.57
-21.56
-11.09
-2.14
3.99
6.55
4.78
-3.19
-18.62
-41.91
-71.72
-104.94
-138.24
-168.47
-192.47
-207.41
-211.96
-204.59
-185.44
-156.30
-120.71
-83.44
-47.22
-10.07
39.02
107.38
195.40
291.98
379.01
445.21
485.31
498.14
486.72
457.21
409.27
348.15
280.86
215.13
156.72
107.63
66.79
32.09
1.27
-28.67
-57.82
-84.58
-105.09
-115.68
-114.73
-103.89
-87.55
-68.17
-52.12
-44.24
-49.71
-64.00
-79.93
-89.81
-91.38
-87.12
-82.61
-83.94
-93.21
-108.42
-124.63
-137.38
-143.56
-141.88
-131.93
-114.44
-92.39
-70.03
-52.17
-42.22
-41.02
-42.93
-39.31
-21.77
11.85
54.99
96.76
128.31
148.20
159.95
167.95
174.79
180.50
182.68
178.16
163.01
137.13
103.65
67.28
32.97
3.90
-19.39
-38.98
-57.80
-77.56
-97.88
-117.60
-136.42
-155.31
-175.77
-198.28
-221.07
-240.33
-251.79
-252.84
-244.22
-229.71
-213.73
-199.08
-185.83
-172.22
-156.47
-138.39
-119.56
-102.49
-89.04
-78.88
-69.25
-55.99
-35.25
-5.17
33.38
77.13
121.45
161.80
194.95
219.62
236.19
245.89
249.95
249.33
244.83
237.45
228.42
218.98
209.81
200.58
190.01
176.15
157.20
132.18
101.44
66.77
31.07
-2.33
-30.50
-51.64
-65.46
-72.97
-75.82
-75.54
-72.85
-67.64
-59.26
-47.24
-31.80
-13.84
5.40
24.62
42.55
57.86
69.09
75.02
75.11
70.18
62.67
56.32
55.13
62.00
77.80
101.20
129.27
158.32
184.84
206.14
220.43
226.49
223.26
210.05
187.08
156.33
120.79
83.75
47.99
15.53
-12.25
-34.32
-49.14
-54.68
-48.39
-29.85
-1.45
32.00
65.09
93.35
113.46
123.69
123.86
116.37
103.95
89.51
75.29
62.83
51.94
39.68
22.00
-3.97
-36.70
-72.95
-108.86
-141.91
-170.42
-188.31
-189.30
-170.28
-143.30
-117.81
-102.50
-101.04
-116.03
-145.18
-181.27
-215.54
-240.74
-253.37
-252.36
-240.22
-220.67
-197.45
-172.76
-148.10
-125.42
-106.78
-93.47
-84.12
-76.71
-68.86
-59.13
-46.77
-31.93
-15.69
0.87
17.14
33.36
48.39
59.44
62.99
57.23
43.63
26.47
10.88
0.15
-5.60
-9.44
-15.09
-24.30
-35.50
-45.22
-50.98
-53.31
-55.55
-61.38
-72.61
-87.98
-104.46
-119.33
-131.98
-143.54
-154.82
-164.25
-167.63
-160.09
-139.32
-107.77
-72.21
-40.59
-18.27
-5.75
0.62
5.72
12.64
21.38
29.84
36.22
40.59
44.93
51.63
61.63
73.73
85.40
94.14
98.65
99.05
96.13
90.64
83.11
74.12
64.58
55.73
48.47
43.02
39.08
36.17
33.95
32.16
30.25
27.29
22.52
16.07
9.53
5.53
6.66
14.32
28.29
47.32
70.14
95.75
122.73
148.11
167.04
174.07
165.81
143.17
111.77
79.88
55.04
41.07
37.27
39.65
43.56
46.03
46.65
46.94
49.05
54.35
62.89
73.60
84.92
95.35
103.91
110.34
114.91
118.19
120.56
122.13
122.87
123.06
123.61
125.86
130.80
138.12
145.74
150.12
147.56
135.72
114.66
86.87
56.35
27.22
2.66
-15.63
-27.31
-32.96
-33.59
-30.45
-24.98
-18.84
-13.94
-12.15
-14.99
-23.30
-36.80
-54.00
-72.17
-87.78
-97.17
-97.51
-87.66
-68.78
-44.24
-18.86
2.33
15.48
18.89
13.17
0.76
-14.87
-30.08
-41.70
-47.34
-45.48
-35.59
-18.07
5.67
33.04
60.27
82.45
94.23
90.83
69.46
30.61
-21.49
-79.61
-135.31
-181.28
-213.16
-230.16
-234.56
-230.32
-221.86
-213.05
-206.49
-202.97
-201.14
-197.88
-189.51
-173.53
-150.15
-122.58
-95.82
-74.46
-60.70
-53.67
-50.45
-47.87
-44.19
-39.56
-35.26
-32.48
-31.55
-31.88
-32.68
-33.66
-35.28
-38.41
-43.54
-50.16
-56.61
-60.61
-60.28
-54.93
-45.35
-33.43
-21.23
-10.26
-0.99
6.94
14.27
21.57
28.91
35.82
41.48
45.07
46.08
44.52
40.93
36.07
30.51
24.34
17.14
8.38
-2.02
-13.30
-23.85
-31.80
-35.67
-35.03
-30.55
-23.70
-16.14
-9.27
-3.93
-0.39
1.51
2.35
2.97
4.43
7.77
13.69
22.32
33.06
44.71
55.87
65.36
72.47
77.10
79.52
80.09
79.10
76.70
72.96
68.10
62.51
56.69
51.13
46.12
41.69
37.73
34.05
30.54
27.17
23.98
20.97
18.07
15.15
12.15
9.09
6.07
3.28
0.82
-1.41
-3.71
-6.49
-10.04
-14.28
-18.65
-22.14
-23.66
-22.38
-18.11
-11.35
-3.18
5.10
12.41
18.07
21.86
23.92
24.52
23.90
22.25
19.70
16.37
12.51
8.36
4.22
0.35
-3.13
-6.16
-8.77
-11.05
-13.12
-15.10
-17.14
-19.29
-21.60
-24.00
-26.39
-28.65
-30.71
-32.59
-34.41
-36.44
-39.00
-42.36
-46.54
-51.12
-55.22
-57.59
-57.01
-52.68
-44.60
-33.61
-21.13
-8.72
2.37
11.45
18.43
23.50
26.98
29.10
29.99
29.76
28.60
26.85
24.90
23.16
21.89
21.18
20.93
20.88
20.77
20.38
19.67
18.72
17.74
16.86
16.13
15.42
14.48
13.01
10.74
7.49
3.08
-2.57
-9.47
-17.34
-25.52
-32.90
-38.23
-40.48
-39.27
-35.09
-29.07
-22.58
-16.67
-11.78
-7.77
-4.27
-1.03
1.82
3.88
4.70
4.15
2.44
0.16
-2.06
-3.71
-4.56
-4.63
-3.99
-2.68
-0.63
2.30
6.09
10.47
14.87
18.59
21.01
21.81
20.95
18.64
15.05
10.20
3.98
-3.57
-11.92
-19.88
-25.74
-27.76
-24.80
-16.83
-5.00
8.71
22.11
33.51
42.06
47.74
51.10
52.79
53.36
53.14
52.35
51.16
49.81
48.52
47.42
46.53
45.77
45.04
44.34
43.73
43.33
43.19
43.27
43.38
43.29
42.76
41.66
40.11
38.37
36.78
35.58
34.64
33.36
31.00
27.30
23.20
20.97
23.56
33.40
51.24
75.52
102.66
128.28
148.58
161.40
166.25
163.77
155.16
142.03
126.46
110.57
96.07
83.43
71.50
57.90
40.25
18.17
-5.75
-26.37
-39.35
-43.63
-42.30
-40.85
-44.20
-54.59
-70.16
-86.12
-96.60
-99.14
-95.42
-90.00
-87.34
-89.87
-98.35
-111.80
-128.25
-143.63
-154.66
-158.48
-153.13
-137.71
-114.06
-88.86
-71.24
-69.27
-84.48
-114.01
-151.28
-189.13
-221.91
-239.49
-235.86
-210.81
-181.35
-153.29
-126.69
-96.07
-60.54
-21.88
16.67
50.77
77.09
94.13
104.42
110.14
112.69
112.21
108.50
101.38
90.49
76.70
61.79
49.66
42.22
38.46
34.60
25.97
9.17
-16.56
-48.51
-82.58
-113.36
-136.87
-150.40
-152.11
-141.62
-120.79
-94.23
-68.04
-48.35
-36.22
-26.19
-7.88
28.75
84.98
148.81
199.10
224.66
224.51
207.32
186.41
169.18
160.55
159.67
161.71
161.90
158.13
149.41
135.24
114.69
86.64
51.53
11.82
-27.31
-58.73
-75.78
-76.24
-62.79
-41.91
-21.31
-6.81
-1.59
-5.56
-15.84
-28.10
-38.64
-44.98
-46.15
-42.54
-35.35
-26.61
-18.46
-12.37
-9.09
-8.77
-10.89
-14.28
-17.47
-19.07
-18.54
-16.45
-14.12
-12.87
-13.41
-15.41
-17.76
-19.16
-18.82
-16.89
-14.19
-11.60
-9.60
-8.02
-6.25
-3.58
0.52
6.28
13.63
22.12
30.96
39.01
45.09
48.32
48.41
45.83
41.62
36.99
32.97
30.08
28.31
27.30
26.65
26.11
25.61
25.18
24.74
24.05
22.72
20.35
16.74
11.91
6.09
-0.47
-7.56
-14.91
-22.10
-28.31
-32.46
-33.44
-30.50
-23.77
-14.28
-3.89
5.32
11.53
13.70
11.71
6.29
-1.29
-9.63
-17.48
-23.97
-28.73
-31.85
-33.81
-35.32
-37.06
-39.55
-42.96
-47.11
-51.56
-55.86
-59.74
-63.35
-67.29
-72.39
-79.41
-88.58
-99.39
-110.53
-120.27
-126.85
-128.99
-126.13
-118.57
-107.37
-94.11
-80.64
-68.60
-59.10
-52.47
-48.29
-45.66
-43.69
-41.90
-40.25
-39.06
-38.56
-38.62
-38.81
-38.59
-37.61
-35.90
-33.84
-32.02
-31.05
-31.50
-33.85
-38.41
-45.08
-53.05
-60.73
-65.92
-66.40
-60.77
-48.92
-32.20
-12.96
6.24
23.32
37.11
47.37
54.39
58.67
60.62
60.50
58.49
54.71
49.35
42.62
34.80
26.22
17.35
8.66
0.63
-6.34
-12.01
-16.41
-19.81
-22.81
-26.12
-30.35
-35.64
-41.32
-45.95
-47.62
-44.56
-35.82
-21.67
-3.54
16.48
36.21
53.92
68.50
79.40
86.40
89.50
88.89
84.97
78.50
70.41
61.65
52.96
44.75
37.07
29.82
22.91
16.39
10.48
5.40
1.15
-2.60
-6.59
-11.65
-18.34
-26.53
-35.16
-42.33
-45.83
-43.89
-35.78
-22.08
-4.57
14.45
32.76
48.74
61.46
70.57
76.02
77.90
76.41
71.99
65.39
57.56
49.38
41.46
33.92
26.52
18.88
10.78
2.36
-5.92
-13.45
-19.77
-24.79
-28.84
-32.54
-36.50
-41.10
-46.16
-50.85
-53.85
-53.60
-48.84
-39.12
-24.99
-7.88
10.32
27.88
43.63
57.05
68.04
76.66
82.82
86.36
87.25
85.80
82.71
78.89
75.13
71.80
68.78
65.65
61.93
57.46
52.47
47.44
42.93
39.19
36.09
33.11
29.52
24.58
17.83
9.25
-0.57
-10.38
-18.50
-23.10
-22.72
-16.79
-5.78
8.82
25.00
40.75
54.62
65.79
74.01
79.34
81.88
81.68
78.90
73.91
67.38
60.22
53.30
47.24
42.21
37.97
34.04
29.97
25.49
20.60
15.54
10.59
5.95
1.69
-2.26
-6.13
-10.23
-14.89
-20.51
-27.30
-35.12
-43.29
-50.57
-55.40
-56.25
-52.17
-43.08
-29.86
-14.02
2.68
18.65
32.71
44.17
52.73
58.35
61.18
61.57
60.10
57.47
54.41
51.50
48.99
46.82
44.69
42.33
39.57
36.53
33.48
30.69
28.24
25.94
23.38
20.12
15.89
10.69
4.84
-1.19
-6.87
-11.88
-16.16
-19.94
-23.67
-27.91
-33.08
-39.26
-46.04
-52.45
-57.09
-58.53
-55.68
-48.28
-37.06
-23.53
-9.52
3.30
13.90
21.93
27.54
31.07
32.76
32.77
31.26
28.57
25.20
21.75
18.72
16.40
14.79
13.73
12.96
12.30
11.60
10.80
9.87
8.80
7.56
6.17
4.60
2.81
0.72
-1.76
-4.68
-7.98
-11.49
-14.97
-18.20
-21.05
-23.53
-25.83
-28.20
-30.92
-34.26
-38.39
-43.28
-48.55
-53.32
-56.34
-56.24
-52.01
-43.45
-31.29
-17.07
-2.58
10.60
21.47
29.69
35.33
38.66
39.97
39.46
37.44
34.34
30.70
27.14
24.14
21.96
20.55
19.69
19.07
18.47
17.80
17.13
16.58
16.22
15.95
15.45
14.29
12.11
8.71
4.21
-0.96
-6.28
-11.25
-15.65
-19.52
-23.10
-26.69
-30.58
-35.00
-40.14
-46.19
-53.13
-60.51
-67.37
-72.29
-73.76
-70.80
-63.30
-52.20
-39.14
-25.92
-13.87
-3.65
4.68
11.37
16.58
20.32
22.47
23.03
22.27
20.73
19.02
17.64
16.83
16.53
16.54
16.60
16.55
16.29
15.79
15.03
14.01
12.71
11.09
9.09
6.62
3.55
-0.21
-4.67
-9.73
-15.20
-20.85
-26.47
-31.91
-37.06
-41.89
-46.44
-50.85
-55.36
-60.25
-65.68
-71.52
-77.18
-81.59
-83.43
-81.55
-75.37
-65.19
-52.09
-37.71
-23.66
-11.12
-0.68
7.64
14.07
18.87
22.16
23.99
24.46
23.87
22.67
21.37
20.38
19.82
19.55
19.25
18.63
17.57
16.20
14.81
13.69
12.92
12.28
11.35
9.67
7.02
3.49
-0.53
-4.58
-8.30
-11.57
-14.59
-17.66
-21.14
-25.31
-30.32
-36.18
-42.59
-48.86
-53.93
-56.48
-55.35
-49.92
-40.43
-27.93
-13.96
-0.15
12.29
22.67
30.76
36.58
40.20
41.67
41.10
38.73
35.04
30.67
26.28
22.32
19.03
16.34
14.09
12.10
10.27
8.57
7.06
5.76
4.67
3.69
2.65
1.33
-0.55
-3.21
-6.73
-10.94
-15.45
-19.75
-23.42
-26.40
-28.92
-31.48
-34.63
-38.78
-44.10
-50.41
-57.17
-63.47
-68.05
-69.54
-66.83
-59.44
-47.73
-32.93
-16.76
-0.93
13.25
25.07
34.37
41.30
46.05
48.77
49.56
48.61
46.35
43.37
40.35
37.82
36.01
34.87
34.11
33.46
32.80
32.21
31.87
31.88
32.08
32.09
31.39
29.62
26.72
22.96
18.87
14.99
11.66
8.93
6.53
4.00
0.83
-3.38
-8.85
-15.44
-22.55
-29.03
-33.44
-34.39
-31.05
-23.56
-13.07
-1.44
9.31
17.68
22.90
25.01
24.53
22.16
18.48
13.87
8.64
3.05
-2.56
-7.84
-12.46
-16.22
-19.09
-21.16
-22.60
-23.52
-23.87
-23.51
-22.29
-20.19
-17.51
-14.80
-12.71
-11.69
-11.81
-12.75
-13.86
-14.55
-14.53
-13.92
-13.21
-13.08
-14.14
-16.78
-21.04
-26.52
-32.33
-37.17
-39.53
-38.10
-32.21
-22.12
-9.03
5.27
18.94
30.64
39.72
46.21
50.42
52.70
53.24
52.11
49.48
45.70
41.26
36.72
32.43
28.51
24.87
21.34
17.84
14.50
11.56
9.26
7.67
6.55
5.40
3.63
0.76
-3.28
-8.17
-13.32
-18.14
-22.31
-25.91
-29.36
-33.21
-37.99
-43.99
-51.22
-59.29
-67.41
-74.36
-78.65
-78.87
-74.14
-64.44
-50.77
-34.82
-18.48
-3.38
9.51
19.81
27.57
32.98
36.22
37.49
37.09
35.51
33.36
31.28
29.65
28.58
27.84
27.10
26.06
24.65
22.95
21.17
19.48
17.87
16.15
14.06
11.40
8.14
4.42
0.54
-3.26
-6.82
-10.19
-13.62
-17.52
-22.31
-28.21
-34.96
-41.71
-47.04
-49.38
-47.41
-40.66
-29.68
-15.89
-1.12
12.89
24.93
34.33
40.87
44.57
45.59
44.26
41.14
36.93
32.37
28.00
24.06
20.53
17.28
14.17
11.15
8.27
5.58
3.12
0.85
-1.28
-3.36
-5.46
-7.64
-9.98
-12.45
-15.02
-17.56
-20.00
-22.34
-24.83
-27.83
-31.79
-36.84
-42.62
-48.09
-51.67
-51.79
-47.41
-38.49
-26.08
-11.93
2.15
14.82
25.46
34.06
40.82
45.87
49.09
50.34
49.62
47.27
43.92
40.28
36.98
34.29
32.21
30.52
28.96
27.27
25.30
22.98
20.28
17.21
13.82
10.19
6.44
2.65
-1.18
-5.16
-9.51
-14.44
-20.06
-26.19
-32.26
-37.21
-39.74
-38.64
-33.21
-23.70
-11.31
2.10
14.55
24.55
31.40
35.19
36.47
35.78
33.47
29.66
24.49
18.30
11.67
5.30
-0.24
-4.72
-8.32
-11.50
-14.82
-18.64
-23.04
-27.81
-32.57
-36.98
-40.89
-44.35
-47.58
-50.79
-54.20
-57.95
-62.14
-66.82
-71.83
-76.66
-80.27
-81.33
-78.50
-71.01
-59.03
-43.76
-27.06
-10.91
3.17
14.41
22.78
28.63
32.40
34.41
34.83
33.87
31.85
29.28
26.68
24.51
22.99
22.10
21.60
21.16
20.41
19.07
16.95
14.02
10.34
6.12
1.64
-2.89
-7.31
-11.63
-16.03
-20.84
-26.42
-33.08
-40.81
-49.12
-56.96
-62.76
-64.87
-62.06
-53.98
-41.39
-25.96
-9.77
5.28
17.89
27.54
34.26
38.41
40.37
40.45
38.93
36.13
32.47
28.44
24.48
20.96
18.02
15.67
13.80
12.20
10.67
8.96
6.88
4.30
1.20
-2.40
-6.40
-10.74
-15.42
-20.46
-25.96
-32.06
-39.02
-47.03
-56.10
-65.67
-74.52
-80.81
-82.54
-78.18
-67.38
-51.06
-31.18
-10.10
10.19
28.35
43.79
56.33
65.95
72.63
76.42
77.58
76.67
74.42
71.50
68.36
65.16
61.82
58.27
54.54
50.82
47.28
43.98
40.75
37.19
32.95
27.81
21.85
15.36
8.70
2.12
-4.31
-10.77
-17.58
-25.12
-33.63
-43.01
-52.54
-60.92
-66.47
-67.57
-63.26
-53.65
-39.86
-23.73
-7.18
8.25
21.65
32.61
41.02
46.85
50.08
50.83
49.41
46.34
42.22
37.60
32.86
28.26
23.98
20.17
16.94
14.28
11.99
9.72
7.04
3.62
-0.69
-5.85
-11.66
-17.85
-24.16
-30.41
-36.55
-42.70
-49.14
-56.20
-64.04
-72.34
-80.15
-85.96
-88.09
-85.17
-76.68
-63.14
-45.96
-27.02
-8.18
9.13
23.97
35.92
44.80
50.67
53.72
54.34
53.14
50.89
48.36
46.12
44.43
43.25
42.27
41.15
39.69
37.90
35.97
34.13
32.43
30.67
28.44
25.33
21.08
15.76
9.74
3.52
-2.45
-7.93
-13.02
-18.08
-23.60
-30.07
-37.73
-46.33
-55.01
-62.30
-66.42
-65.83
-59.74
-48.42
-33.14
-15.74
1.94
18.49
33.12
45.53
55.60
63.23
68.32
70.88
71.20
69.81
67.42
64.67
62.02
59.64
57.53
55.64
53.97
52.61
51.62
50.94
50.27
49.20
47.32
44.40
40.51
35.90
30.98
26.02
21.10
16.09
10.79
5.04
-1.14
-7.54
-13.84
-19.73
-25.06
-29.93
-34.63
-39.64
-45.45
-52.32
-60.11
-68.14
-75.11
-79.42
-79.49
-74.35
-63.94
-49.20
-31.87
-13.90
2.97
17.62
29.54
38.68
45.19
49.23
50.99
50.69
48.68
45.47
41.64
37.72
34.04
30.69
27.57
24.58
21.71
19.15
17.18
16.03
15.68
15.83
15.93
15.35
13.62
10.60
6.49
1.78
-2.99
-7.34
-11.11
-14.43
-17.60
-20.92
-24.50
-28.26
-31.89
-35.08
-37.65
-39.61
-41.13
-42.51
-44.11
-46.35
-49.58
-53.90
-59.02
-63.99
-67.43
-67.72
-63.60
-54.64
-41.43
-25.49
-8.74
7.03
20.63
31.61
40.08
46.33
50.67
53.21
54.03
53.31
51.38
48.76
46.01
43.53
41.51
39.91
38.55
37.21
35.79
34.32
32.96
31.82
30.90
29.98
28.68
26.63
23.65
19.84
15.57
11.23
7.04
2.91
-1.48
-6.47
-12.15
-18.22
-24.14
-29.33
-33.43
-36.46
-38.76
-40.82
-43.08
-45.86
-49.24
-53.07
-56.84
-59.67
-60.33
-57.54
-50.40
-38.77
-23.50
-6.22
11.12
26.74
39.55
49.18
55.85
60.01
62.11
62.33
60.82
57.74
53.45
48.48
43.48
38.86
34.80
31.17
27.72
24.27
20.88
17.81
15.37
13.70
12.61
11.63
10.20
7.91
4.72
0.94
-2.94
-6.47
-9.45
-12.01
-14.51
-17.34
-20.74
-24.72
-29.03
-33.29
-37.16
-40.41
-43.04
-45.23
-47.30
-49.68
-52.76
-56.80
-61.80
-67.34
-72.53
-76.10
-76.66
-73.23
-65.51
-54.11
-40.35
-25.89
-12.22
-0.38
9.15
16.28
21.18
24.08
25.23
24.94
23.54
21.40
18.89
16.31
13.86
11.66
9.78
8.25
7.10
6.31
5.89
5.76
5.73
5.55
4.96
3.79
2.02
-0.23
-2.75
-5.43
-8.22
-11.18
-14.36
-17.78
-21.30
-24.78
-28.06
-31.11
-34.01
-37.01
-40.42
-44.52
-49.39
-54.70
-59.59
-62.78
-62.85
-58.80
-50.41
-38.38
-24.13
-9.33
4.58
16.69
26.61
34.31
39.89
43.48
45.16
45.13
43.65
41.18
38.23
35.25
32.58
30.32
28.36
26.47
24.42
22.17
19.85
17.75
16.07
14.83
13.74
12.31
10.06
6.73
2.44
-2.40
-7.25
-11.68
-15.53
-18.97
-22.40
-26.26
-30.90
-36.52
-43.08
-50.25
-57.32
-63.22
-66.67
-66.47
-61.90
-53.01
-40.72
-26.54
-12.16
1.05
12.30
21.37
28.37
33.47
36.73
38.16
37.80
35.91
32.94
29.46
26.02
23.03
20.74
19.28
18.67
18.94
20.01
21.78
23.96
26.14
27.80
28.35
27.33
24.50
19.97
14.21
7.86
1.55
-4.31
-9.63
-14.63
-19.73
-25.40
-31.93
-39.30
-47.04
-54.19
-59.49
-61.64
-59.68
-53.29
-42.93
-29.70
-15.08
-0.57
12.60
23.62
32.10
37.93
41.19
42.12
41.07
38.49
34.98
31.12
27.37
23.94
20.77
17.60
14.21
10.52
6.69
3.12
0.20
-1.80
-2.86
-3.24
-3.33
-3.57
-4.24
-5.44
-7.12
-9.13
-11.34
-13.78
-16.68
-20.52
-25.79
-32.81
-41.35
-50.52
-58.79
-64.35
-65.67
-61.96
-53.46
-41.27
-27.02
-12.34
1.49
13.60
23.52
31.02
36.02
38.66
39.26
38.37
36.64
34.68
32.86
31.30
29.87
28.28
26.35
23.99
21.36
18.71
16.26
14.08
12.05
9.88
7.27
4.00
0.04
-4.50
-9.47
-14.79
-20.50
-26.77
-33.78
-41.59
-49.89
-57.97
-64.72
-68.79
-69.05
-64.85
-56.38
-44.61
-31.04
-17.22
-4.39
6.73
15.93
23.27
28.90
32.89
35.27
36.07
35.46
33.81
31.58
29.30
27.37
25.98
25.07
24.41
23.62
22.35
20.30
17.32
13.32
8.37
2.62
-3.67
-10.23
-16.86
-23.47
-30.13
-37.07
-44.50
-52.54
-60.92
-68.94
-75.39
-78.86
-78.07
-72.32
-61.76
-47.42
-30.90
-13.99
1.79
15.43
26.49
35.01
41.27
45.70
48.71
50.65
51.79
52.33
52.49
52.48
52.54
52.89
53.66
54.92
56.63
58.67
60.87
62.96
64.52
65.00
63.77
60.37
54.62
46.81
37.63
27.94
18.47
9.60
1.22
-7.11
-15.91
-25.41
-35.25
-44.46
-51.60
-55.23
-54.35
-48.69
-38.87
-26.15
-12.10
1.90
14.82
26.13
35.65
43.32
49.09
52.88
54.64
54.44
52.55
49.43
45.67
41.87
38.45
35.56
33.09
30.81
28.52
26.22
24.10
22.46
21.44
20.92
20.43
19.32
17.01
13.24
8.21
2.47
-3.33
-8.67
-13.34
-17.48
-21.36
-25.29
-29.53
-34.29
-39.75
-45.99
-52.81
-59.47
-64.69
-66.94
-64.90
-58.03
-46.88
-32.94
-18.13
-4.17
7.78
17.32
24.60
29.98
33.82
36.37
37.81
38.30
38.02
37.15
35.83
34.19
32.30
30.30
28.34
26.60
25.27
24.50
24.27
24.39
24.44
23.92
22.48
20.10
17.15
14.26
12.06
10.80
10.19
9.47
7.77
4.54
-0.13
-5.54
-10.69
-14.75
-17.37
-18.73
-19.46
-20.33
-22.11
-25.46
-30.87
-38.44
-47.70
-57.41
-65.67
-70.54
-70.69
-66.01
-57.74
-47.89
-38.48
-30.73
-24.82
-20.05
-15.45
-10.32
-4.51
1.62
7.56
12.89
17.46
21.34
24.67
27.51
29.86
31.61
32.72
33.28
33.51
33.77
34.36
35.45
36.94
38.54
39.77
40.17
39.50
37.78
35.39
32.89
30.89
29.77
29.56
29.96
30.45
30.46
29.47
27.08
22.96
17.04
9.53
1.19
-6.75
-12.76
-15.42
-13.98
-8.51
0.02
10.16
20.45
29.80
37.59
43.58
47.72
49.97
50.33
48.88
45.91
41.88
37.33
32.74
28.35
24.15
19.96
15.61
11.04
6.37
1.85
-2.33
-6.08
-9.53
-13.00
-16.87
-21.45
-26.93
-33.29
-40.20
-47.18
-53.58
-58.88
-62.80
-65.45
-67.34
-69.26
-72.04
-76.26
-81.98
-88.48
-94.32
-97.60
-96.46
-89.71
-77.31
-60.44
-41.17
-21.89
-4.60
9.54
20.21
27.80
33.00
36.52
38.89
40.35
40.80
39.83
36.82
31.11
22.34
10.62
-3.25
-17.89
-31.58
-42.69
-50.09
-53.51
-53.69
-52.22
-51.09
-52.11
-56.34
-63.79
-73.39
-83.49
-92.36
-98.75
-102.04
-102.34
-100.22
-96.56
-92.34
-88.39
-85.12
-82.22
-78.67
-72.96
-63.73
-50.32
-33.14
-13.57
6.52
25.35
41.74
55.15
65.52
72.98
77.68
79.77
79.58
77.67
74.71
71.43
68.28
65.38
62.57
59.58
56.26
52.69
49.06
45.58
42.26
38.95
35.39
31.38
26.95
22.36
17.90
13.77
9.97
6.26
2.19
-2.69
-8.79
-16.32
-25.16
-34.76
-44.00
-51.37
-55.20
-54.15
-47.72
-36.42
-21.70
-5.49
10.40
24.67
36.71
46.43
53.99
59.59
63.39
65.52
66.23
65.78
64.47
62.49
59.89
56.65
52.78
48.37
43.70
39.18
35.23
32.13
29.97
28.57
27.60
26.69
25.58
24.11
22.23
19.91
16.99
13.21
8.18
1.44
-7.33
-18.16
-30.49
-43.07
-54.01
-61.26
-63.24
-59.49
-50.92
-39.59
-27.86
-17.58
-9.55
-3.43
1.71
6.79
12.23
17.84
23.05
27.24
30.00
31.15
30.80
29.16
26.58
23.50
20.43
17.82
15.94
14.77
14.00
13.09
11.43
8.58
4.35
-1.01
-6.92
-12.61
-17.38
-20.90
-23.39
-25.64
-28.69
-33.42
-40.05
-47.87
-55.33
-60.45
-61.48
-57.51
-48.81
-36.71
-23.27
-10.62
-0.51
6.08
8.88
8.17
4.56
-1.24
-8.53
-16.70
-25.19
-33.52
-41.32
-48.31
-54.33
-59.31
-63.22
-66.04
-67.73
-68.19
-67.26
-64.89
-61.15
-56.31
-50.57
-43.93
-36.02
-26.31
-14.43
-0.64
14.13
28.57
41.60
52.97
63.40
74.23
86.63
101.05
116.96
133.08
147.97
160.51
170.12
176.68
180.37
181.36
179.85
175.99
169.95
162.03
152.61
142.17
131.24
120.32
109.84
100.17
91.49
83.87
77.15
70.97
64.96
58.82
52.58
46.49
40.93
36.08
31.79
27.56
22.69
16.61
9.05
0.20
-9.38
-18.70
-26.56
-31.74
-33.42
-31.50
-26.86
-21.14
-16.21
-13.49
-13.45
-15.66
-19.24
-23.63
-29.08
-36.59
-47.39
-62.09
-80.13
-99.66
-118.05
-132.78
-142.24
-146.18
-145.64
-142.29
-137.76
-133.04
-128.34
-123.32
-117.65
-111.36
-104.97
-99.28
-95.00
-92.46
-91.57
-91.96
-93.28
-95.22
-97.42
-99.24
-99.62
-97.25
-91.00
-80.44
-66.10
-49.43
-32.30
-16.47
-3.18
7.06
14.35
19.15
22.01
23.46
23.85
23.45
22.50
21.32
20.28
19.69
19.64
19.93
20.11
19.69
18.38
16.17
13.37
10.31
7.18
3.90
0.23
-4.06
-9.02
-14.54
-20.45
-26.66
-33.12
-39.68
-45.88
-50.81
-53.26
-52.05
-46.49
-36.73
-23.83
-9.55
4.24
16.04
25.04
31.16
34.77
36.39
36.41
35.08
32.57
29.22
25.53
22.08
19.35
17.53
16.50
15.84
15.08
13.84
11.99
9.56
6.71
3.62
0.37
-2.97
-6.40
-9.98
-13.79
-18.05
-23.04
-28.99
-35.80
-42.86
-48.96
-52.50
-52.01
-46.67
-36.70
-23.34
-8.48
6.02
18.73
28.95
36.52
41.60
44.33
44.80
43.14
39.73
35.23
30.54
26.50
23.64
22.01
21.17
20.44
19.16
16.94
13.73
9.83
5.65
1.54
-2.25
-5.69
-8.87
-12.05
-15.62
-20.13
-26.16
-34.12
-43.96
-54.90
-65.39
-73.48
-77.35
-75.87
-69.02
-57.89
-44.26
-30.04
-16.79
-5.40
3.76
10.65
15.26
17.47
17.12
14.18
8.89
1.87
-6.00
-13.73
-20.49
-25.74
-29.28
-31.24
-31.92
-31.80
-31.38
-31.21
-31.75
-33.33
-36.09
-40.01
-44.91
-50.60
-56.93
-63.83
-71.22
-78.80
-85.88
-91.34
-93.77
-91.85
-84.79
-72.69
-56.48
-37.66
-17.84
1.61
19.66
35.53
48.53
58.04
63.66
65.41
63.92
60.35
56.12
52.56
50.55
50.44
51.93
54.26
56.41
57.42
56.70
54.16
50.25
45.72
41.24
37.07
32.98
28.37
22.51
14.89
5.39
-5.58
-17.08
-27.65
-35.50
-38.84
-36.37
-27.69
-13.60
4.08
23.00
40.98
56.50
68.86
78.01
84.17
87.52
88.19
86.42
82.73
77.96
73.04
68.71
65.23
62.36
59.63
56.60
53.14
49.41
45.67
42.04
38.31
34.04
28.80
22.36
14.91
6.94
-0.90
-8.09
-14.37
-19.77
-24.62
-29.36
-34.38
-39.87
-45.56
-50.65
-53.80
-53.50
-48.52
-38.35
-23.56
-5.65
13.37
31.54
47.45
60.43
70.36
77.43
81.82
83.67
83.18
80.71
76.86
72.40
68.04
64.28
61.33
59.12
57.33
55.60
53.60
51.22
48.53
45.77
43.16
40.78
38.46
35.85
32.55
28.30
23.08
17.15
10.90
4.71
-1.20
-6.80
-12.34
-18.10
-24.45
-31.63
-39.71
-48.50
-57.49
-65.80
-72.20
-75.29
-73.89
-67.41
-56.12
-41.20
-24.38
-7.41
8.31
22.04
33.48
42.61
49.38
53.68
55.51
55.11
53.01
49.96
46.65
43.52
40.69
38.03
35.36
32.49
29.36
25.97
22.29
18.33
14.18
10.10
6.46
3.70
2.05
1.47
1.50
1.53
0.97
-0.45
-2.66
-5.28
-7.88
-10.17
-12.15
-14.10
-16.47
-19.68
-23.90
-28.93
-34.08
-38.25
-40.18
-38.82
-33.68
-25.10
-14.12
-2.24
9.03
18.57
25.79
30.60
33.23
33.99
33.23
31.31
28.64
25.65
22.73
20.17
18.09
16.50
15.30
14.43
13.80
13.34
12.96
12.47
11.69
10.49
8.87
7.00
5.15
3.64
2.68
2.31
2.44
2.81
3.16
3.23
2.94
2.36
1.86
1.93
3.09
5.64
9.46
14.01
18.41
21.65
22.90
21.63
17.71
11.38
3.24
-5.85
-14.90
-22.82
-28.64
-31.63
-31.51
-28.48
-23.30
-17.09
-11.15
-6.59
-4.06
-3.55
-4.45
-5.76
-6.48
-5.95
-4.00
-0.98
2.42
5.38
7.17
7.37
5.89
2.95
-0.98
-5.46
-10.18
-15.07
-20.26
-25.85
-31.65
-37.00
-40.83
-41.87
-39.12
-32.28
-21.94
-9.48
3.26
14.52
23.05
28.24
30.11
29.02
25.48
20.03
13.21
5.61
-2.08
-9.17
-15.15
-19.85
-23.47
-26.55
-29.63
-33.05
-36.70
-40.13
-42.75
-44.18
-44.46
-44.01
-43.46
-43.34
-43.89
-45.02
-46.50
-48.10
-49.67
-51.02
-51.78
-51.30
-48.78
-43.54
-35.30
-24.43
-11.86
1.11
13.15
23.13
30.28
34.30
35.27
33.62
30.03
25.25
19.99
14.73
9.76
5.12
0.78
-3.36
-7.36
-11.26
-15.04
-18.70
-22.22
-25.65
-29.16
-33.07
-37.77
-43.47
-50.01
-56.62
-62.03
-64.74
-63.53
-57.92
-48.29
-35.90
-22.41
-9.50
1.58
10.12
15.93
19.15
20.10
19.15
16.73
13.31
9.41
5.46
1.84
-1.24
-3.73
-5.69
-7.23
-8.49
-9.55
-10.54
-11.66
-13.21
-15.60
-19.21
-24.14
-30.02
-35.89
-40.33
-41.83
-39.27
-32.29
-21.46
-8.10
6.17
19.85
31.80
41.40
48.42
52.84
54.76
54.35
51.84
47.60
42.06
35.68
28.92
22.09
15.44
9.08
3.11
-2.50
-7.83
-13.11
-18.70
-25.05
-32.58
-41.46
-51.41
-61.52
-70.32
-76.03
-77.13
-72.79
-63.25
-49.77
-34.32
-18.91
-5.20
5.89
14.06
19.39
22.06
22.18
19.86
15.29
8.93
1.46
-6.29
-13.60
-19.97
-25.31
-29.83
-33.91
-37.97
-42.33
-47.14
-52.46
-58.23
-64.19
-69.73
-73.79
-74.91
-71.55
-62.71
-48.34
-29.58
-8.56
12.23
30.67
45.44
56.14
63.05
66.67
67.50
65.87
62.12
56.70
50.25
43.45
36.94
31.09
26.09
21.89
18.40
15.43
12.69
9.72
5.91
0.73
-6.00
-13.77
-21.36
-26.98
-28.69
-25.04
-15.46
-0.53
18.14
38.25
57.42
73.65
85.69
93.12
96.18
95.51
91.86
85.93
78.34
69.64
60.40
51.14
42.25
33.95
26.24
18.96
11.96
5.14
-1.40
-7.57
-13.34
-18.90
-24.58
-30.63
-36.91
-42.62
-46.39
-46.61
-42.02
-32.18
-17.70
-0.00
19.12
37.94
55.17
69.86
81.33
89.02
92.57
92.00
87.85
81.19
73.38
65.68
58.91
53.30
48.65
44.53
40.61
36.81
33.15
29.71
26.34
22.69
18.30
12.83
6.23
-1.18
-8.85
-16.19
-22.83
-28.81
-34.51
-40.58
-47.72
-56.33
-66.31
-76.80
-86.23
-92.53
-93.68
-88.31
-76.20
-58.43
-37.04
-14.47
7.12
26.23
42.13
54.56
63.45
68.80
70.63
69.29
65.53
60.49
55.40
51.23
48.41
46.76
45.69
44.57
42.98
40.89
38.53
36.18
34.02
31.97
29.76
27.05
23.58
19.36
14.62
9.83
5.50
1.96
-0.76
-2.97
-5.22
-8.09
-11.92
-16.72
-22.16
-27.70
-32.80
-37.10
-40.50
-43.12
-45.34
-47.64
-50.54
-54.45
-59.47
-65.18
-70.57
-74.08
-74.06
-69.24
-59.19
-44.59
-27.06
-8.65
8.65
23.46
35.10
43.48
48.85
51.54
51.84
50.02
46.43
41.50
35.83
30.01
24.63
20.14
16.77
14.53
13.22
12.49
11.92
11.17
9.97
8.21
5.92
3.21
0.30
-2.59
-5.25
-7.59
-9.70
-11.82
-14.27
-17.27
-20.87
-24.87
-28.92
-32.67
-35.91
-38.66
-41.17
-43.90
-47.33
-51.82
-57.37
-63.46
-69.04
-72.67
-72.87
-68.61
-59.65
-46.60
-30.74
-13.61
3.40
19.26
33.28
44.99
54.05
60.19
63.34
63.68
61.76
58.30
54.10
49.83
45.90
42.49
39.62
37.21
35.15
33.34
31.63
29.83
27.68
24.94
21.46
17.22
12.37
7.17
1.88
-3.31
-8.31
-13.14
-17.87
-22.55
-27.18
-31.68
-35.87
-39.57
-42.68
-45.24
-47.51
-49.93
-52.95
-56.92
-61.84
-67.27
-72.33
-75.81
-76.44
-73.29
-65.98
-54.82
-40.80
-25.30
-9.73
4.77
17.48
28.12
36.61
43.00
47.30
49.52
49.81
48.50
46.15
43.42
40.91
38.96
37.59
36.57
35.57
34.32
32.72
30.82
28.72
26.48
24.08
21.45
18.52
15.24
11.63
7.73
3.59
-0.64
-4.82
-8.80
-12.50
-15.93
-19.24
-22.62
-26.26
-30.38
-35.16
-40.74
-47.04
-53.52
-59.20
-62.70
-62.70
-58.43
-50.02
-38.48
-25.36
-12.17
0.03
10.76
19.95
27.56
33.47
37.41
39.23
39.11
37.66
35.71
34.06
33.14
32.92
33.01
32.83
31.94
30.14
27.42
23.98
19.96
15.49
10.59
5.34
-0.16
-5.69
-11.01
-15.91
-20.31
-24.27
-27.97
-31.61
-35.36
-39.25
-43.29
-47.39
-51.48
-55.52
-59.38
-62.75
-65.09
-65.71
-63.87
-59.08
-51.24
-40.76
-28.43
-15.22
-2.03
10.39
21.46
30.65
37.42
41.23
41.68
38.80
33.20
26.04
18.77
12.72
8.69
6.73
6.24
6.25
5.95
4.94
3.44
2.13
1.79
2.92
5.42
8.59
11.33
12.52
11.35
7.61
1.66
-5.69
-13.39
-20.33
-25.57
-28.51
-29.02
-27.60
-25.28
-23.24
-22.38
-22.84
-23.91
-24.30
-22.67
-18.28
-11.24
-2.42
7.01
16.04
24.19
31.42
37.89
43.68
48.60
52.35
54.69
55.67
55.65
55.18
54.68
54.27
53.66
52.36
49.91
46.20
41.62
36.89
32.88
30.24
29.19
29.43
30.29
31.00
30.89
29.51
26.61
22.12
16.12
8.80
0.55
-8.11
-16.60
-24.34
-30.88
-35.87
-39.01
-40.06
-38.88
-35.59
-30.65
-24.85
-19.03
-13.75
-9.02
-4.31
1.13
7.71
15.15
22.38
27.93
30.52
29.60
25.63
19.76
13.42
7.79
3.55
0.90
-0.28
-0.32
0.31
0.95
0.84
-0.69
-3.99
-8.86
-14.66
-20.50
-25.64
-29.71
-32.79
-35.30
-37.74
-40.44
-43.47
-46.55
-49.15
-50.71
-50.85
-49.68
-47.78
-46.08
-45.39
-45.97
-47.36
-48.52
-48.40
-46.58
-43.65
-41.11
-40.74
-43.85
-50.60
-59.94
-69.93
-78.50
-84.07
-85.95
-84.40
-80.25
-74.62
-68.46
-62.40
-56.68
-51.37
-46.45
-42.01
-38.16
-35.03
-32.79
-31.75
-32.46
-35.66
-41.83
-50.69
-60.77
-69.58
-74.19
-72.37
-63.35
-48.21
-29.39
-9.83
7.92
22.28
32.68
39.32
42.83
43.99
43.59
42.37
40.97
39.78
38.92
38.15
36.99
34.88
31.43
26.60
20.72
14.36
8.05
2.09
-3.56
-9.18
-14.97
-20.75
-25.85
-29.13
-29.35
-25.66
-17.91
-6.85
6.11
19.31
31.28
41.07
48.28
52.93
55.24
55.42
53.73
50.46
45.96
40.68
34.99
29.13
23.22
17.30
11.46
5.84
0.65
-4.06
-8.37
-12.60
-17.19
-22.64
-29.22
-36.85
-44.96
-52.53
-58.22
-60.68
-58.93
-52.62
-42.29
-29.12
-14.80
-0.96
11.09
20.61
27.36
31.45
33.12
32.61
30.17
26.11
20.90
15.09
9.22
3.62
-1.64
-6.70
-11.72
-16.74
-21.64
-26.23
-30.39
-34.23
-38.14
-42.57
-47.82
-53.73
-59.50
-63.86
-65.31
-62.61
-55.16
-43.22
-27.84
-10.53
7.10
23.69
38.29
50.37
59.74
66.37
70.34
71.74
70.80
67.80
63.20
57.48
51.15
44.63
38.18
31.94
25.97
20.32
15.00
9.94
4.85
-0.74
-7.43
-15.76
-25.89
-37.39
-49.11
-59.31
-66.05
-67.71
-63.46
-53.52
-39.06
-21.90
-4.01
12.87
27.51
39.23
47.84
53.58
56.93
58.56
59.12
59.09
58.75
58.04
56.67
54.25
50.39
44.93
37.98
29.90
21.26
12.66
4.51
-3.11
-10.45
-17.96
-26.00
-34.53
-42.85
-49.66
-53.40
-52.68
-46.82
-36.11
-21.76
-5.60
10.52
25.12
37.43
47.23
54.68
59.98
63.22
64.37
63.49
60.86
57.04
52.81
48.85
45.55
42.85
40.31
37.33
33.48
28.72
23.35
17.93
12.99
8.79
5.23
1.92
-1.63
-5.83
-10.92
-16.98
-23.83
-31.01
-37.62
-42.33
-43.67
-40.40
-32.06
-19.28
-3.70
12.53
27.34
39.28
47.77
52.86
54.94
54.43
51.67
47.04
41.14
34.87
29.33
25.53
24.12
25.18
28.37
33.06
38.67
44.73
50.82
56.36
60.52
62.36
61.20
57.05
50.75
43.88
38.08
34.52
33.47
34.26
35.69
36.46
35.50
32.10
25.82
16.48
4.31
-9.91
-24.63
-37.76
-47.06
-50.80
-48.29
-40.08
-27.80
-13.57
0.55
13.01
22.92
29.98
34.23
35.85
35.09
32.35
28.20
23.42
18.88
15.29
13.08
12.27
12.56
13.45
14.42
15.08
15.16
14.48
12.94
10.52
7.30
3.44
-0.79
-5.07
-9.14
-12.78
-15.93
-18.61
-20.88
-22.77
-24.24
-25.26
-25.84
-26.16
-26.58
-27.49
-29.23
-31.96
-35.59
-39.94
-44.71
-49.43
-53.36
-55.46
-54.74
-50.81
-44.21
-36.35
-28.82
-22.56
-17.33
-11.86
-4.67
4.92
16.31
27.77
37.21
43.10
44.98
43.36
39.33
34.07
28.53
23.47
19.50
17.11
16.50
17.59
19.80
22.15
23.50
22.85
19.76
14.47
7.84
0.96
-5.25
-10.38
-14.56
-18.26
-21.93
-25.76
-29.64
-33.23
-36.23
-38.48
-40.11
-41.46
-42.98
-45.16
-48.33
-52.57
-57.50
-62.28
-65.64
-66.22
-62.98
-55.53
-44.34
-30.62
-15.94
-1.82
10.54
20.47
27.68
32.15
34.06
33.68
31.41
27.80
23.46
19.09
15.31
12.66
11.46
11.77
13.27
15.40
17.38
18.49
18.26
16.53
13.44
9.27
4.33
-1.16
-7.04
-13.19
-19.47
-25.76
-31.96
-38.03
-43.95
-49.69
-55.11
-60.07
-64.45
-68.26
-71.74
-75.16
-78.65
-81.87
-83.92
-83.49
-79.28
-70.56
-57.49
-41.21
-23.46
-6.05
9.60
22.65
32.81
40.06
44.46
46.11
45.30
42.63
39.03
35.66
33.50
33.18
34.73
37.69
41.33
44.91
47.96
50.29
51.94
52.93
53.16
52.34
50.01
45.77
39.49
31.35
21.87
11.75
1.61
-8.14
-17.40
-26.30
-35.07
-43.89
-52.86
-61.89
-70.74
-79.02
-86.07
-91.09
-93.19
-91.63
-86.14
-77.06
-65.37
-52.45
-39.77
-28.51
-19.39
-12.67
-8.26
-5.87
-5.16
-5.69
-6.96
-8.46
-9.67
-10.27
-10.14
-9.40
-8.33
-7.25
-6.37
-5.79
-5.39
-4.92
-4.03
-2.35
0.33
4.01
8.46
13.20
17.68
21.42
24.05
25.36
25.30
24.03
22.06
20.27
19.70
21.31
25.52
32.02
39.83
47.68
54.43
59.42
62.52
63.83
63.49
61.42
57.47
51.58
44.03
35.41
26.58
18.36
11.35
5.80
1.55
-1.83
-4.90
-8.12
-11.78
-15.89
-20.30
-24.83
-29.36
-33.87
-38.46
-43.27
-48.47
-54.20
-60.52
-67.14
-73.39
-78.02
-79.53
-76.48
-68.02
-54.30
-36.45
-16.33
4.02
22.79
38.69
50.94
59.14
63.19
63.26
59.90
54.06
47.07
40.37
35.21
32.34
31.79
32.91
34.62
35.80
35.54
33.41
29.36
23.59
16.47
8.35
-0.33
-9.08
-17.40
-24.91
-31.46
-37.09
-41.83
-45.43
-47.30
-46.68
-43.01
-36.21
-26.90
-16.11
-4.98
5.69
15.45
24.14
31.56
37.35
40.96
41.95
40.27
36.40
31.30
26.18
22.12
19.83
19.49
20.74
22.98
25.47
27.62
29.10
29.80
29.71
28.87
27.17
24.43
20.45
15.16
8.60
0.99
-7.40
-16.20
-24.85
-32.47
-37.85
-39.71
-37.06
-29.68
-18.30
-4.45
9.98
23.27
34.24
42.35
47.52
49.94
49.95
47.96
44.59
40.57
36.71
33.69
31.90
31.39
31.92
33.06
34.32
35.26
35.51
34.77
32.88
29.77
25.51
20.27
14.33
8.03
1.70
-4.39
-10.11
-15.48
-20.71
-26.04
-31.66
-37.42
-42.78
-46.78
-48.32
-46.47
-40.85
-31.78
-20.29
-7.77
4.32
14.83
23.16
29.14
33.02
35.14
35.89
35.56
34.44
32.82
30.94
28.94
26.79
24.35
21.51
18.33
15.23
12.81
11.71
12.23
14.12
16.56
18.44
18.68
16.56
11.97
5.23
-3.04
-12.25
-21.98
-32.03
-42.33
-52.71
-62.79
-71.87
-79.05
-83.36
-83.99
-80.46
-72.80
-61.58
-47.84
-32.90
-18.16
-4.82
6.26
14.60
20.04
22.77
23.19
21.90
19.59
16.96
14.55
12.68
11.44
10.74
10.38
10.18
9.98
9.66
9.13
8.33
7.25
5.82
3.91
1.38
-1.94
-6.06
-10.85
-15.98
-21.04
-25.68
-29.75
-33.35
-36.77
-40.33
-44.24
-48.42
-52.44
-55.48
-56.58
-54.82
-49.67
-41.13
-29.81
-16.81
-3.42
9.13
19.88
28.33
34.35
38.17
40.18
40.86
40.69
40.12
39.50
39.10
39.02
39.18
39.37
39.37
39.01
38.30
37.43
36.61
36.00
35.57
35.11
34.27
32.77
30.44
27.31
23.65
19.79
16.06
12.67
9.62
6.66
3.38
-0.69
-5.90
-12.34
-19.64
-26.98
-33.24
-37.24
-38.20
-35.94
-30.99
-24.41
-17.39
-10.88
-5.50
-1.44
1.30
2.75
2.88
1.67
-0.81
-4.25
-8.19
-12.01
-15.12
-17.10
-17.78
-17.26
-15.85
-13.96
-11.93
-10.03
-8.40
-7.12
-6.29
-6.07
-6.67
-8.32
-11.12
-15.10
-20.12
-25.96
-32.24
-38.46
-43.88
-47.57
-48.61
-46.33
-40.59
-31.93
-21.40
-10.32
0.11
9.12
16.35
21.72
25.28
26.98
26.77
24.76
21.34
17.19
13.15
9.96
8.01
7.25
7.27
7.44
7.15
6.04
4.03
1.36
-1.57
-4.34
-6.64
-8.37
-9.60
-10.55
-11.53
-12.86
-14.84
-17.72
-21.53
-25.94
-30.16
-33.05
-33.35
-30.20
-23.45
-13.78
-2.50
8.90
19.19
27.62
33.88
37.95
39.89
39.81
37.95
34.76
30.78
26.56
22.36
18.21
13.97
9.54
4.96
0.39
-4.06
-8.39
-12.67
-16.96
-21.15
-25.01
-28.28
-30.92
-33.17
-35.53
-38.53
-42.52
-47.50
-52.97
-58.06
-61.57
-62.28
-59.23
-52.03
-41.02
-27.22
-12.00
3.21
17.24
29.31
38.88
45.67
49.58
50.68
49.37
46.34
42.46
38.57
35.31
32.92
31.28
30.04
28.78
27.16
25.03
22.33
19.09
15.36
11.21
6.75
2.10
-2.65
-7.49
-12.53
-17.88
-23.62
-29.69
-35.85
-41.69
-46.58
-49.76
-50.40
-47.84
-41.77
-32.44
-20.67
-7.68
5.27
17.19
27.49
35.95
42.56
47.27
50.02
50.79
49.76
47.40
44.39
41.37
38.81
36.80
35.16
33.66
32.16
30.73
29.54
28.67
28.00
27.09
25.36
22.25
17.44
10.95
3.16
-5.30
-13.69
-21.41
-28.12
-33.78
-38.65
-43.16
-47.72
-52.66
-57.99
-63.44
-68.30
-71.55
-72.08
-68.96
-61.83
-51.05
-37.65
-23.02
-8.50
4.93
16.70
26.53
34.23
39.58
42.45
42.91
41.38
38.63
35.53
32.79
30.75
29.38
28.40
27.51
26.50
25.33
24.05
22.66
21.05
19.06
16.51
13.28
9.41
5.07
0.46
-4.20
-8.76
-13.18
-17.55
-22.03
-26.84
-32.07
-37.58
-42.83
-46.93
-48.77
-47.35
-42.10
-33.18
-21.39
-8.05
5.46
18.00
28.85
37.70
44.44
49.04
51.43
51.57
49.57
45.77
40.71
35.06
29.46
24.36
19.97
16.29
13.10
10.03
6.66
2.56
-2.55
-8.71
-15.69
-22.99
-30.03
-36.28
-41.41
-45.38
-48.39
-50.82
-53.13
-55.69
-58.62
-61.61
-63.87
-64.31
-61.82
-55.72
-46.05
-33.57
-19.57
-5.39
7.88
19.55
29.31
37.01
42.56
45.93
47.21
46.73
44.95
42.41
39.56
36.72
34.03
31.57
29.35
27.35
25.46
23.43
20.96
17.72
13.56
8.56
3.01
-2.68
-8.15
-13.23
-17.95
-22.47
-27.01
-31.74
-36.71
-41.86
-46.93
-51.46
-54.79
-56.15
-54.86
-50.62
-43.58
-34.37
-23.88
-13.04
-2.56
7.02
15.29
21.81
26.07
27.71
26.69
23.55
19.37
15.58
13.45
13.83
16.82
21.79
27.60
32.91
36.47
37.45
35.57
31.16
25.06
18.41
12.34
7.62
4.46
2.50
1.04
-0.73
-3.37
-7.04
-11.43
-15.85
-19.28
-20.67
-19.09
-14.04
-5.61
5.53
18.30
31.52
44.25
55.93
66.32
75.28
82.54
87.67
90.22
89.94
87.01
82.03
75.81
69.10
62.36
55.73
49.19
42.75
36.65
31.22
26.72
23.16
20.16
17.15
13.56
9.14
4.08
-1.19
-6.20
-10.70
-14.82
-18.97
-23.63
-29.23
-36.05
-44.14
-53.24
-62.69
-71.45
-78.15
-81.47
-80.56
-75.32
-66.49
-55.36
-43.29
-31.38
-20.30
-10.40
-1.95
4.76
9.45
11.98
12.51
11.49
9.64
7.64
5.94
4.69
3.76
2.92
2.04
1.20
0.59
0.39
0.52
0.62
0.12
-1.51
-4.47
-8.51
-13.00
-17.25
-20.83
-23.74
-26.39
-29.43
-33.40
-38.62
-45.08
-52.39
-59.97
-66.99
-72.52
-75.53
-75.15
-70.81
-62.47
-50.74
-36.71
-21.75
-7.17
6.06
17.37
26.55
33.64
38.78
42.18
44.15
45.07
45.49
45.95
46.86
48.45
50.64
53.04
55.16
56.45
56.58
55.39
53.01
49.67
45.65
41.12
36.19
30.88
25.29
19.55
13.85
8.33
3.03
-2.13
-7.30
-12.63
-18.21
-24.08
-30.30
-36.89
-43.85
-50.91
-57.48
-62.66
-65.37
-64.71
-60.33
-52.57
-42.41
-31.16
-20.06
-9.93
-1.07
6.60
13.32
19.17
24.04
27.64
29.64
29.90
28.54
26.00
22.87
19.85
17.48
16.06
15.55
15.60
15.60
14.99
13.44
10.96
7.92
4.81
2.06
-0.23
-2.25
-4.33
-6.76
-9.64
-12.91
-16.52
-20.51
-25.03
-30.18
-35.89
-41.85
-47.73
-53.36
-58.75
-63.96
-68.80
-72.57
-74.15
-72.35
-66.44
-56.52
-43.55
-29.02
-14.41
-0.86
11.04
21.06
29.17
35.31
39.45
41.64
42.14
41.46
40.21
38.97
38.13
37.80
37.90
38.25
38.60
38.75
38.57
37.98
36.99
35.68
34.11
32.28
30.12
27.44
24.13
20.10
15.47
10.45
5.34
0.33
-4.44
-8.99
-13.38
-17.67
-21.97
-26.36
-30.97
-35.95
-41.36
-47.02
-52.44
-56.71
-58.70
-57.38
-52.14
-43.17
-31.44
-18.48
-5.94
4.89
13.34
19.39
23.37
25.73
26.75
26.58
25.34
23.25
20.65
17.94
15.42
13.21
11.35
9.80
8.60
7.92
7.88
8.46
9.43
10.35
10.73
10.27
8.90
6.88
4.61
2.53
0.88
-0.33
-1.36
-2.61
-4.46
-7.12
-10.51
-14.29
-18.02
-21.35
-24.19
-26.79
-29.62
-33.16
-37.70
-43.06
-48.58
-53.20
-55.68
-54.96
-50.43
-42.15
-30.86
-17.74
-4.10
8.93
20.61
30.51
38.53
44.68
49.08
51.88
53.28
53.53
52.94
51.77
50.24
48.50
46.63
44.64
42.46
40.01
37.22
34.04
30.42
26.36
21.85
16.95
11.81
6.63
1.62
-3.11
-7.61
-12.08
-16.76
-21.84
-27.36
-33.17
-39.00
-44.55
-49.57
-53.95
-57.76
-61.19
-64.60
-68.32
-72.52
-77.03
-81.18
-83.89
-83.88
-80.10
-72.09
-60.17
-45.41
-29.22
-13.03
2.08
15.52
27.07
36.73
44.49
50.31
54.15
56.10
56.43
55.58
54.04
52.25
50.44
48.68
46.94
45.16
43.39
41.73
40.22
38.80
37.26
35.24
32.47
28.81
24.35
19.29
13.91
8.43
2.98
-2.37
-7.66
-12.91
-18.22
-23.68
-29.31
-35.03
-40.60
-45.76
-50.31
-54.29
-57.93
-61.51
-65.12
-68.44
-70.72
-70.96
-68.27
-62.16
-52.78
-40.81
-27.28
-13.34
0.07
12.30
22.98
31.96
39.16
44.59
48.23
50.22
50.79
50.30
49.16
47.76
46.39
45.21
44.24
43.39
42.49
41.28
39.49
36.89
33.31
28.72
23.24
17.07
10.44
3.52
-3.56
-10.70
-17.83
-24.82
-31.57
-37.92
-43.82
-49.26
-54.29
-59.05
-63.68
-68.41
-73.54
-79.26
-85.55
-91.92
-97.30
-100.21
-99.13
-93.04
-81.80
-66.33
-48.24
-29.42
-11.42
4.76
18.75
30.51
40.13
47.64
53.03
56.36
57.86
58.03
57.43
56.58
55.80
55.14
54.48
53.61
52.46
51.10
49.72
48.53
47.58
46.79
45.98
44.93
43.44
41.35
38.52
34.79
30.08
24.41
17.95
10.97
3.72
-3.72
-11.42
-19.65
-28.72
-38.88
-50.17
-62.28
-74.40
-85.27
-93.34
-97.18
-95.92
-89.60
-79.18
-66.30
-52.69
-39.80
-28.39
-18.72
-10.65
-4.01
1.29
5.24
7.85
9.26
9.75
9.77
9.74
9.98
10.63
11.65
12.96
14.46
16.16
18.10
20.32
22.71
24.95
26.54
26.93
25.67
22.62
17.96
12.13
5.72
-0.80
-7.13
-13.26
-19.33
-25.64
-32.47
-40.06
-48.43
-57.27
-65.81
-72.79
-76.69
-76.15
-70.40
-59.64
-45.00
-28.16
-10.87
5.54
20.36
33.36
44.52
53.73
60.75
65.34
67.45
67.40
65.87
63.65
61.40
59.48
57.90
56.45
54.83
52.82
50.32
47.36
44.04
40.47
36.76
32.94
28.96
24.58
19.51
13.46
6.30
-1.78
-10.31
-18.65
-26.28
-32.96
-38.92
-44.82
-51.43
-59.34
-68.56
-78.33
-87.18
-93.30
-95.03
-91.41
-82.42
-69.05
-52.96
-36.05
-20.05
-6.25
4.64
12.30
16.75
18.16
16.79
12.96
7.18
0.16
-7.21
-13.98
-19.25
-22.38
-23.04
-21.22
-17.24
-11.61
-4.99
1.89
8.24
13.34
16.54
17.34
15.46
10.92
4.07
-4.44
-13.67
-22.64
-30.56
-37.05
-42.30
-47.01
-52.09
-58.30
-65.78
-73.87
-81.03
-85.27
-84.69
-78.08
-65.38
-47.66
-26.85
-5.13
15.56
33.98
49.64
62.68
73.52
82.51
89.84
95.48
99.31
101.24
101.30
99.60
96.27
91.45
85.31
78.22
70.77
63.76
57.96
53.88
51.49
50.17
48.91
46.66
42.75
37.01
29.82
21.81
13.53
5.19
-3.35
-12.47
-22.54
-33.70
-45.65
-57.58
-68.21
-75.94
-79.13
-76.45
-67.39
-52.40
-32.91
-11.03
11.00
31.26
48.55
62.42
73.06
80.94
86.60
90.45
92.76
93.81
93.80
92.96
91.43
89.22
86.24
82.47
78.05
73.32
68.69
64.49
60.76
57.24
53.49
49.09
43.80
37.60
30.62
23.08
15.26
7.38
-0.42
-8.18
-16.08
-24.34
-32.94
-41.37
-48.54
-52.98
-53.29
-48.66
-39.24
-26.04
-10.64
5.37
20.76
34.85
47.35
58.13
67.02
73.77
78.20
80.30
80.37
78.90
76.47
73.51
70.26
66.73
62.81
58.40
53.44
48.03
42.37
36.71
31.31
26.28
21.59
16.99
12.13
6.66
0.39
-6.69
-14.44
-22.66
-31.22
-40.12
-49.44
-59.20
-69.17
-78.79
-87.12
-93.03
-95.37
-93.38
-86.82
-76.15
-62.40
-46.92
-31.08
-15.93
-2.18
9.77
19.69
27.40
32.76
35.80
36.89
36.76
36.30
36.27
37.07
38.58
40.33
41.83
42.79
43.20
43.26
43.11
42.67
41.63
39.59
36.29
31.75
26.30
20.42
14.60
9.10
3.89
-1.36
-7.11
-13.87
-21.94
-31.30
-41.42
-51.25
-59.34
-64.13
-64.41
-59.75
-50.70
-38.68
-25.55
-13.11
-2.59
5.40
10.75
13.55
13.93
12.05
8.24
3.15
-2.29
-7.13
-10.68
-12.72
-13.53
-13.70
-13.82
-14.28
-15.17
-16.37
-17.70
-19.14
-20.91
-23.49
-27.40
-32.96
-40.12
-48.33
-56.82
-64.78
-71.66
-77.18
-81.27
-83.87
-84.84
-84.01
-81.38
-77.15
-71.67
-65.24
-57.91
-49.52
-39.88
-29.15
-17.95
-7.36
1.44
7.55
10.68
11.14
9.73
7.33
4.63
2.00
-0.54
-3.11
-5.78
-8.49
-11.01
-13.04
-14.40
-15.05
-15.09
-14.73
-14.15
-13.42
-12.58
-11.78
-11.28
-11.55
-13.12
-16.30
-20.93
-26.26
-30.98
-33.62
-32.95
-28.43
-20.37
-9.79
1.90
13.34
23.52
31.91
38.32
42.73
45.10
45.36
43.45
39.48
33.78
26.87
19.33
11.65
4.12
-3.17
-10.28
-17.29
-24.24
-31.02
-37.44
-43.24
-48.21
-52.26
-55.42
-57.94
-60.17
-62.51
-65.34
-68.81
-72.76
-76.59
-79.33
-79.75
-76.67
-69.36
-57.72
-42.48
-24.91
-6.56
11.15
27.17
40.79
51.62
59.49
64.40
66.59
66.54
64.96
62.63
60.22
58.11
56.38
54.85
53.22
51.24
48.74
45.68
42.14
38.20
33.93
29.29
24.15
18.22
11.17
2.77
-6.89
-17.23
-27.05
-34.83
-39.02
-38.64
-33.62
-24.85
-13.91
-2.56
7.76
16.10
22.10
25.70
27.06
26.48
24.45
21.62
18.79
16.66
15.61
15.65
16.41
17.35
17.94
17.77
16.60
14.32
10.88
6.39
1.06
-4.80
-10.82
-16.80
-22.74
-28.96
-35.99
-44.28
-53.87
-64.11
-73.61
-80.54
-83.10
-80.09
-71.29
-57.55
-40.44
-21.82
-3.28
14.12
29.83
43.66
55.48
65.11
72.30
76.94
79.16
79.49
78.70
77.64
76.91
76.72
76.84
76.77
76.06
74.48
72.08
69.11
65.77
62.05
57.69
52.25
45.27
36.39
25.40
12.26
-2.97
-19.94
-37.86
-55.34
-70.46
-81.30
-86.54
-85.96
-80.51
-71.88
-61.92
-51.97
-42.79
-34.74
-28.04
-23.03
-20.11
-19.60
-21.55
-25.82
-32.01
-39.59
-47.63
-54.84
-59.63
-60.56
-56.84
-48.73
-37.43
-24.70
-12.22
-1.08
8.36
16.30
23.22
29.53
35.41
40.78
45.45
49.14
51.68
53.04
53.34
52.84
51.75
50.19
48.18
45.67
42.63
39.18
35.44
31.67
28.25
25.77
25.07
27.08
32.53
41.56
53.51
66.95
80.08
91.31
99.66
104.96
107.67
108.51
108.09
106.73
104.46
101.20
96.96
91.89
86.28
80.37
74.19
67.43
59.61
50.20
39.06
26.51
13.29
0.32
-11.70
-22.43
-31.92
-40.28
-47.44
-53.00
-56.47
-57.49
-56.23
-53.43
-50.21
-47.70
-46.71
-47.57
-50.23
-54.44
-59.89
-66.18
-72.72
-78.59
-82.54
-83.22
-79.60
-71.34
-59.07
-44.28
-28.90
-14.76
-3.07
5.75
11.98
16.35
19.78
23.26
27.81
34.27
42.90
52.95
62.56
69.23
70.80
66.50
57.46
46.41
36.56
30.29
28.33
29.75
32.62
35.05
35.91
35.06
33.03
30.60
28.32
26.38
24.52
22.22
18.94
14.34
8.48
1.85
-4.74
-10.35
-14.17
-15.63
-14.47
-10.60
-4.12
4.74
15.49
27.37
39.37
50.41
59.56
66.15
69.92
70.82
69.10
65.14
59.46
52.63
45.24
37.85
31.02
25.31
21.18
18.86
18.20
18.55
18.87
18.08
15.53
11.26
6.05
0.98
-3.02
-5.58
-6.96
-7.72
-8.47
-9.53
-11.01
-12.91
-15.43
-18.94
-23.78
-30.01
-37.05
-43.73
-48.48
-49.81
-46.93
-40.05
-30.42
-19.99
-10.75
-4.09
-0.55
0.19
-1.15
-3.83
-7.38
-11.49
-15.80
-19.70
-22.36
-22.94
-20.96
-16.45
-9.97
-2.36
5.56
13.29
20.75
28.25
36.25
45.05
54.64
64.58
74.09
82.26
88.15
91.08
90.73
87.25
81.24
73.62
65.36
57.22
49.62
42.70
36.51
31.17
26.88
23.69
21.34
19.14
16.15
11.58
5.07
-3.07
-12.07
-20.93
-28.81
-35.27
-40.46
-44.90
-49.33
-54.40
-60.34
-66.96
-73.74
-80.15
-85.85
-90.84
-95.25
-99.16
-102.44
-104.88
-106.39
-107.36
-108.65
-111.50
-116.99
-125.61
-136.94
-149.70
-162.15
-172.53
-179.51
-182.40
-181.08
-175.92
-167.67
-157.43
-146.50
-136.11
-127.11
-119.62
-113.00
-106.17
-98.06
-88.19
-76.84
-64.88
-53.38
-43.15
-34.51
-27.36
-21.39
-16.38
-12.28
-9.17
-7.16
-6.21
-6.16
-6.78
-7.96
-9.73
-12.20
-15.42
-19.14
-22.84
-25.90
-27.84
-28.57
-28.48
-28.35
-28.98
-31.02
-34.75
-40.09
-46.63
-53.73
-60.52
-66.01
-69.16
-69.09
-65.39
-58.20
-48.24
-36.63
-24.57
-13.11
-2.99
5.37
11.75
16.10
18.44
18.94
17.88
15.63
12.57
9.01
5.14
1.08
-3.10
-7.27
-11.22
-14.80
-17.90
-20.65
-23.29
-26.21
-29.83
-34.52
-40.47
-47.61
-55.41
-62.86
-68.54
-70.97
-69.00
-62.20
-51.03
-36.69
-20.78
-4.89
9.68
22.11
31.93
38.95
43.21
44.88
44.33
42.02
38.41
33.91
28.77
23.07
16.85
10.18
3.29
-3.46
-9.63
-14.86
-19.06
-22.56
-26.08
-30.52
-36.70
-44.90
-54.59
-64.34
-72.13
-75.80
-73.77
-65.47
-51.52
-33.50
-13.47
6.61
25.19
41.30
54.41
64.29
70.88
74.27
74.80
72.96
69.42
64.76
59.34
53.32
46.72
39.71
32.66
26.13
20.70
16.66
13.88
11.86
9.81
6.96
2.69
-3.34
-11.05
-19.81
-28.39
-35.06
-37.96
-35.62
-27.42
-13.84
3.66
23.10
42.58
60.69
76.66
90.17
101.07
109.14
114.11
115.78
114.25
110.01
103.93
96.95
89.89
83.17
76.80
70.53
64.02
57.11
49.85
42.44
35.12
28.00
21.01
13.98
6.69
-0.99
-9.18
-17.94
-27.34
-37.15
-46.78
-55.01
-60.21
-60.72
-55.46
-44.37
-28.51
-9.70
10.04
29.01
46.09
60.68
72.47
81.23
86.84
89.30
88.95
86.39
82.39
77.70
72.86
68.20
63.82
59.79
56.14
52.93
50.12
47.57
45.05
42.23
38.85
34.77
30.01
24.73
19.14
13.37
7.49
1.41
-4.98
-11.73
-18.83
-26.10
-33.24
-39.92
-45.82
-50.81
-55.07
-59.10
-63.53
-68.88
-75.11
-81.40
-86.17
-87.43
-83.48
-73.51
-57.96
-38.33
-16.69
4.95
25.16
43.11
58.50
71.16
80.97
87.83
91.76
93.09
92.38
90.32
87.59
84.70
81.96
79.52
77.41
75.59
74.02
72.67
71.49
70.37
69.08
67.25
64.47
60.39
54.92
48.29
41.00
33.66
26.83
20.87
15.90
11.76
8.09
4.46
0.51
-3.98
-9.00
-14.37
-19.83
-25.18
-30.34
-35.30
-40.09
-44.80
-49.55
-54.57
-60.17
-66.47
-73.22
-79.56
-84.11
-85.31
-81.97
-73.69
-61.03
-45.33
-28.24
-11.27
4.53
18.58
30.65
40.63
48.41
53.91
57.14
58.31
57.88
56.41
54.52
52.67
51.14
49.99
49.15
48.51
47.99
47.57
47.24
46.96
46.60
45.96
44.83
43.07
40.66
37.71
34.43
31.02
27.60
24.18
20.68
17.05
13.33
9.67
6.27
3.23
0.46
-2.30
-5.42
-9.20
-13.63
-18.46
-23.23
-27.52
-31.14
-34.22
-37.17
-40.52
-44.79
-50.29
-57.01
-64.49
-71.80
-77.62
-80.54
-79.41
-73.74
-63.86
-50.87
-36.31
-21.66
-8.06
3.88
14.01
22.37
29.06
34.12
37.58
39.54
40.15
39.67
38.39
36.58
34.48
32.27
30.11
28.14
26.45
25.10
24.07
23.30
22.64
21.92
20.96
19.62
17.78
15.47
12.80
9.97
7.20
4.60
2.23
0.01
-2.16
-4.42
-6.84
-9.47
-12.35
-15.52
-18.98
-22.74
-26.71
-30.76
-34.76
-38.64
-42.45
-46.38
-50.73
-55.80
-61.70
-68.24
-74.79
-80.38
-83.84
-84.11
-80.55
-73.19
-62.70
-50.21
-37.01
-24.16
-12.35
-1.90
7.10
14.56
20.32
24.22
26.22
26.53
25.65
24.22
22.82
21.82
21.32
21.21
21.32
21.53
21.79
22.07
22.39
22.74
23.12
23.52
23.88
24.06
23.89
23.21
22.03
20.51
18.86
17.23
15.51
13.39
10.45
6.46
1.42
-4.37
-10.45
-16.38
-21.85
-26.68
-30.84
-34.44
-37.71
-41.06
-44.95
-49.78
-55.72
-62.50
-69.40
-75.31
-78.91
-79.04
-74.95
-66.65
-54.91
-41.08
-26.66
-12.95
-0.73
9.73
18.52
25.74
31.42
35.46
37.82
38.68
38.47
37.73
36.95
36.36
35.95
35.58
35.13
34.64
34.28
34.28
34.75
35.63
36.64
37.36
37.35
36.32
34.21
31.20
27.62
23.84
20.07
16.30
12.34
7.96
3.01
-2.43
-8.12
-13.76
-19.09
-24.04
-28.68
-33.20
-37.86
-42.95
-48.73
-55.37
-62.82
-70.59
-77.82
-83.24
-85.54
-83.73
-77.46
-67.16
-53.85
-38.95
-23.83
-9.61
2.94
13.42
21.63
27.59
31.43
33.42
33.91
33.34
32.09
30.49
28.79
27.12
25.59
24.27
23.28
22.71
22.62
22.95
23.49
23.89
23.77
22.81
20.94
18.32
15.28
12.18
9.22
6.39
3.45
0.08
-4.04
-8.98
-14.60
-20.55
-26.37
-31.71
-36.39
-40.56
-44.65
-49.22
-54.76
-61.42
-68.77
-75.79
-80.97
-82.76
-79.96
-72.19
-60.00
-44.72
-28.06
-11.63
3.38
16.30
26.93
35.25
41.35
45.36
47.45
47.90
47.09
45.42
43.22
40.78
38.27
35.81
33.44
31.24
29.22
27.43
25.89
24.57
23.43
22.36
21.20
19.68
17.54
14.58
10.80
6.46
2.12
-1.49
-3.60
-3.63
-1.32
3.20
9.44
16.65
23.94
30.41
35.31
38.10
38.57
36.88
33.49
29.09
24.39
20.06
16.51
13.94
12.33
11.48
11.09
10.91
10.74
10.47
10.13
9.73
9.31
8.93
8.59
8.34
8.14
7.92
7.56
6.92
5.95
4.70
3.32
1.96
0.66
-0.74
-2.45
-4.69
-7.43
-10.53
-13.68
-16.69
-19.55
-22.47
-25.73
-29.57
-34.01
-38.77
-43.44
-47.57
-50.88
-53.39
-55.40
-57.50
-60.41
-64.75
-70.77
-78.09
-85.58
-91.52
-94.01
-91.54
-83.51
-70.45
-53.86
-35.77
-18.09
-2.25
11.03
21.59
29.58
35.25
38.88
40.77
41.29
40.87
39.95
38.82
37.65
36.39
34.91
33.12
31.05
28.85
26.79
25.06
23.75
22.71
21.62
20.08
17.70
14.28
9.87
4.74
-0.61
-5.70
-10.18
-14.04
-17.63
-21.53
-26.37
-32.52
-40.00
-48.29
-56.46
-63.33
-67.67
-68.47
-65.22
-57.95
-47.36
-34.51
-20.69
-7.07
5.50
16.46
25.55
32.65
37.74
40.97
42.60
43.05
42.74
41.99
40.93
39.48
37.49
34.92
31.95
28.97
26.46
24.76
23.91
23.56
23.06
21.70
18.99
14.78
9.35
3.24
-2.96
-8.80
-14.11
-19.09
-24.18
-29.96
-36.94
-45.27
-54.63
-64.04
-72.08
-77.12
-77.84
-73.59
-64.65
-52.15
-37.66
-22.77
-8.71
3.80
14.45
23.13
29.80
34.38
36.90
37.54
36.75
35.11
33.19
31.39
29.89
28.65
27.51
26.36
25.17
24.04
23.14
22.60
22.38
22.21
21.64
20.10
17.14
12.64
6.86
0.43
-5.94
-11.73
-16.82
-21.54
-26.50
-32.32
-39.45
-47.84
-56.98
-65.86
-73.11
-77.32
-77.24
-72.24
-62.39
-48.59
-32.27
-15.09
1.48
16.49
29.47
40.40
49.40
56.59
62.00
65.55
67.23
67.13
65.57
62.99
59.89
56.71
53.80
51.32
49.31
47.67
46.26
44.90
43.46
41.83
39.88
37.48
34.49
30.76
26.17
20.77
14.73
8.37
2.08
-3.83
-9.15
-13.89
-18.17
-22.27
-26.57
-31.55
-37.63
-45.08
-53.72
-62.76
-70.80
-76.09
-77.01
-72.61
-62.93
-49.01
-32.55
-15.39
0.96
15.58
28.01
38.14
45.91
51.28
54.20
54.78
53.40
50.64
47.26
43.94
41.14
39.04
37.61
36.73
36.30
36.33
36.85
37.83
39.05
40.14
40.60
40.03
38.26
35.47
32.03
28.41
24.90
21.51
17.96
13.85
8.89
3.07
-3.26
-9.55
-15.26
-20.07
-24.08
-27.78
-31.88
-37.06
-43.61
-51.22
-58.91
-65.14
-68.32
-67.23
-61.42
-51.40
-38.37
-23.82
-9.11
4.83
17.48
28.62
38.10
45.76
51.50
55.32
57.40
58.05
57.62
56.36
54.48
52.18
49.76
47.64
46.29
46.11
47.19
49.25
51.65
53.61
54.42
53.73
51.56
48.22
44.06
39.26
33.79
27.41
19.85
10.94
0.71
-10.62
-22.70
-35.08
-47.27
-58.78
-69.26
-78.58
-86.87
-94.45
-101.61
-108.30
-113.99
-117.65
-118.02
-114.01
-105.06
-91.48
-74.37
-55.37
-36.19
-18.19
-2.08
12.03
24.41
35.35
44.98
53.20
59.77
64.53
67.55
69.07
69.42
68.82
67.41
65.21
62.32
59.03
55.74
52.86
50.63
48.97
47.52
45.77
43.19
39.49
34.58
28.67
22.10
15.40
9.20
4.22
1.15
0.55
2.70
7.45
14.24
22.12
29.99
36.75
41.59
44.05
44.06
41.91
38.08
33.22
28.07
23.26
19.34
16.60
15.03
14.36
14.13
13.90
13.36
12.43
11.24
10.04
9.07
8.44
8.15
8.07
8.01
7.71
6.98
5.67
3.74
1.30
-1.47
-4.32
-7.04
-9.52
-11.81
-14.03
-16.43
-19.18
-22.35
-25.85
-29.45
-32.90
-36.02
-38.85
-41.60
-44.58
-48.07
-52.14
-56.62
-61.20
-65.53
-69.44
-72.94
-76.29
-79.91
-84.30
-89.78
-96.30
-103.26
-109.42
-113.10
-112.60
-106.73
-95.27
-79.13
-60.04
-40.06
-21.01
-4.09
10.08
21.38
29.84
35.56
38.66
39.42
38.38
36.30
34.02
32.18
31.05
30.50
30.11
29.45
28.23
26.49
24.51
22.64
21.06
19.67
18.11
15.91
12.65
8.24
2.89
-2.92
-8.60
-13.75
-18.27
-22.40
-26.59
-31.37
-37.10
-43.91
-51.54
-59.35
-66.40
-71.49
-73.47
-71.43
-65.11
-54.91
-41.91
-27.52
-13.13
0.17
11.79
21.49
29.27
35.17
39.18
41.33
41.73
40.66
38.49
35.67
32.56
29.43
26.41
23.59
21.02
18.72
16.66
14.72
12.67
10.25
7.27
3.66
-0.51
-5.05
-9.76
-14.55
-19.51
-24.89
-31.06
-38.30
-46.53
-55.13
-62.90
-68.31
-69.88
-66.68
-58.63
-46.55
-31.93
-16.46
-1.62
11.59
22.71
31.72
38.81
44.16
47.85
49.87
50.17
48.86
46.19
42.58
38.54
34.47
30.68
27.25
24.14
21.23
18.33
15.26
11.86
8.02
3.72
-0.97
-5.94
-11.09
-16.39
-21.93
-27.93
-34.62
-42.20
-50.58
-59.21
-66.97
-72.37
-73.91
-70.60
-62.30
-49.82
-34.64
-18.41
-2.48
12.30
25.51
36.98
46.55
53.94
58.91
61.30
61.12
58.60
54.05
47.87
40.47
32.32
23.97
16.01
9.00
3.27
-1.15
-4.60
-7.60
-10.70
-14.20
-18.07
-22.05
-25.78
-29.12
-32.15
-35.27
-38.97
-43.75
-49.86
-57.17
-65.02
-72.19
-77.10
-78.13
-74.12
-64.77
-50.74
-33.48
-14.81
3.63
20.66
35.66
48.41
58.86
67.01
72.82
76.30
77.63
77.13
75.25
72.47
69.15
65.54
61.80
58.02
54.35
50.91
47.75
44.75
41.62
37.96
33.49
28.10
21.94
15.36
8.73
2.32
-3.79
-9.74
-15.85
-22.55
-30.22
-38.95
-48.29
-57.16
-63.90
-66.78
-64.52
-56.83
-44.53
-29.28
-12.98
2.80
17.12
29.68
40.51
49.65
57.00
62.31
65.31
65.97
64.52
61.45
57.37
52.88
48.42
44.26
40.48
37.10
34.08
31.36
28.84
26.32
23.52
20.14
16.01
11.12
5.71
0.11
-5.39
-10.70
-16.03
-21.84
-28.63
-36.59
-45.37
-53.92
-60.60
-63.75
-62.08
-55.23
-43.83
-29.32
-13.48
2.07
16.21
28.38
38.44
46.47
52.55
56.65
58.71
58.70
56.79
53.29
48.74
43.66
38.58
33.78
29.36
25.26
21.27
17.23
12.97
8.43
3.60
-1.43
-6.58
-11.75
-16.88
-21.99
-27.21
-32.80
-39.05
-46.21
-54.25
-62.61
-70.17
-75.37
-76.59
-72.69
-63.46
-49.69
-33.03
-15.40
1.49
16.50
29.18
39.50
47.65
53.77
57.85
59.86
59.91
58.29
55.51
52.15
48.68
45.35
42.15
38.88
35.30
31.35
27.10
22.76
18.55
14.53
10.65
6.69
2.49
-2.03
-6.81
-11.71
-16.52
-21.12
-25.50
-29.71
-33.89
-38.19
-42.83
-48.00
-53.87
-60.40
-67.14
-73.18
-77.18
-77.75
-73.84
-65.21
-52.45
-36.89
-20.09
-3.43
12.17
26.24
38.55
48.95
57.22
63.17
66.80
68.30
68.13
66.80
64.77
62.35
59.77
57.15
54.70
52.65
51.22
50.56
50.58
50.93
51.02
50.17
47.79
43.66
37.98
31.32
24.40
17.76
11.57
5.59
-0.67
-7.70
-15.75
-24.73
-34.20
-43.50
-51.96
-59.07
-64.71
-69.24
-73.39
-78.02
-83.70
-90.37
-97.17
-102.58
-104.89
-102.68
-95.34
-83.20
-67.42
-49.70
-31.84
-15.35
-1.23
10.16
18.98
25.74
31.12
35.64
39.59
42.87
45.17
45.96
44.83
41.57
36.33
29.62
22.30
15.41
9.96
6.75
6.10
7.70
10.71
13.97
16.34
17.11
16.20
14.06
11.37
8.60
5.75
2.40
-2.00
-7.72
-14.47
-21.50
-27.87
-32.93
-36.63
-39.59
-42.80
-47.20
-53.32
-61.15
-70.18
-79.56
-88.18
-94.76
-97.82
-95.99
-88.31
-74.69
-56.21
-34.97
-13.60
5.39
20.29
30.36
35.76
37.16
35.48
31.69
26.78
21.82
17.78
15.51
15.45
17.60
21.51
26.41
31.48
35.95
39.23
40.94
40.87
38.98
35.44
30.65
25.22
19.87
15.21
11.50
8.62
6.02
2.97
-1.19
-6.77
-13.72
-21.63
-29.91
-37.98
-45.45
-52.15
-58.17
-63.72
-68.97
-73.78
-77.55
-79.23
-77.63
-71.80
-61.53
-47.52
-31.23
-14.43
1.34
15.15
26.74
36.23
43.85
49.68
53.65
55.73
56.04
54.99
53.14
51.03
49.02
47.17
45.34
43.24
40.71
37.77
34.68
31.84
29.58
28.01
26.90
25.82
24.20
21.69
18.20
13.98
9.44
4.94
0.71
-3.32
-7.38
-11.80
-16.91
-22.94
-30.00
-37.86
-45.93
-53.15
-58.15
-59.54
-56.34
-48.36
-36.28
-21.51
-5.78
9.35
22.80
34.00
42.75
49.01
52.80
54.18
53.35
50.75
46.98
42.67
38.26
34.01
30.00
26.34
23.26
21.19
20.57
21.69
24.47
28.36
32.39
35.37
36.21
34.20
29.20
21.66
12.47
2.68
-6.79
-15.37
-22.94
-29.69
-36.07
-42.51
-49.21
-55.95
-61.98
-66.08
-66.92
-63.49
-55.50
-43.57
-29.11
-13.91
0.39
12.57
22.01
28.47
32.02
32.81
31.10
27.36
22.24
16.50
10.84
5.77
1.53
-1.80
-4.22
-5.68
-6.11
-5.52
-4.08
-2.19
-0.40
0.72
0.77
-0.42
-2.76
-6.02
-9.98
-14.49
-19.56
-25.21
-31.36
-37.55
-42.91
-46.18
-46.07
-41.70
-33.04
-20.99
-7.21
6.43
18.40
27.83
34.60
39.03
41.54
42.34
41.41
38.72
34.42
29.03
23.34
18.18
14.18
11.45
9.70
8.31
6.69
4.45
1.61
-1.58
-4.76
-7.70
-10.42
-13.13
-16.23
-20.08
-25.08
-31.43
-39.13
-47.76
-56.36
-63.53
-67.55
-66.94
-60.85
-49.50
-34.08
-16.53
1.08
17.05
30.29
40.39
47.33
51.29
52.43
50.98
47.32
42.06
36.02
30.04
24.80
20.57
17.27
14.55
12.01
9.35
6.48
3.48
0.52
-2.25
-4.86
-7.46
-10.42
-14.11
-18.92
-25.07
-32.47
-40.69
-48.74
-55.27
-58.75
-57.86
-51.94
-41.25
-26.92
-10.70
5.56
20.34
32.68
42.14
48.64
52.22
52.98
51.13
47.11
41.56
35.31
29.14
23.65
19.08
15.36
12.14
9.02
5.78
2.50
-0.48
-2.77
-4.19
-4.98
-5.82
-7.60
-11.07
-16.52
-23.60
-31.37
-38.54
-43.76
-45.92
-44.29
-38.61
-29.14
-16.55
-1.85
13.76
29.14
43.28
55.39
64.82
71.00
73.26
71.05
64.18
53.36
40.49
28.38
20.01
17.35
20.40
27.03
33.77
37.22
35.52
29.02
20.09
11.93
7.30
7.55
12.29
19.76
27.53
33.20
34.95
31.85
24.09
12.96
0.76
-9.56
-15.01
-13.45
-4.17
11.77
31.77
52.45
70.64
84.12
91.91
94.14
91.58
85.17
75.79
64.26
51.32
37.71
24.13
11.11
-1.00
-12.06
-22.07
-31.05
-39.02
-45.99
-51.91
-56.80
-60.71
-63.88
-66.73
-69.84
-73.83
-79.15
-85.81
-93.20
-100.12
-105.04
-106.42
-103.17
-94.98
-82.41
-66.71
-49.42
-32.00
-15.55
-0.83
11.62
21.23
27.47
29.97
28.86
24.89
19.33
13.63
8.89
5.59
3.52
2.08
0.62
-1.28
-3.67
-6.35
-9.11
-11.85
-14.73
-18.20
-22.88
-29.39
-38.14
-49.06
-61.37
-73.60
-83.80
-90.01
-90.76
-85.50
-74.73
-59.69
-42.02
-23.38
-5.21
11.29
25.10
35.31
41.22
42.54
39.56
33.15
24.60
15.32
6.51
-1.09
-7.28
-12.29
-16.65
-20.92
-25.52
-30.64
-36.18
-41.92
-47.64
-53.23
-58.76
-64.50
-70.87
-78.23
-86.77
-96.18
-105.56
-113.42
-117.91
-117.30
-110.46
-97.26
-78.59
-56.11
-31.82
-7.55
15.28
35.70
53.08
66.96
77.01
83.16
85.69
85.27
82.89
79.65
76.51
74.10
72.59
71.81
71.37
70.92
70.22
69.25
68.12
66.88
65.43
63.44
60.42
55.91
49.72
42.07
33.51
24.74
16.25
8.20
0.33
-7.72
-16.18
-24.95
-33.62
-41.73
-48.93
-55.20
-60.79
-66.13
-71.74
-78.21
-86.11
-95.83
-107.22
-119.23
-129.85
-136.39
-136.30
-127.92
-111.15
-87.48
-59.47
-29.99
-1.45
24.57
47.30
66.51
82.11
94.02
102.14
106.57
107.72
106.40
103.58
100.21
96.95
94.07
91.47
88.94
86.33
83.61
80.90
78.33
75.92
73.54
70.95
67.87
64.13
59.68
54.60
49.11
43.43
37.73
32.05
26.28
20.20
13.53
6.08
-2.17
-11.05
-20.20
-29.24
-37.84
-45.83
-53.23
-60.23
-67.21
-74.68
-83.19
-93.10
-104.29
-115.88
-126.13
-132.78
-133.54
-126.97
-112.85
-92.38
-67.77
-41.53
-15.79
7.99
29.13
47.39
62.76
75.22
84.70
91.18
94.74
95.67
94.43
91.62
87.93
83.99
80.30
77.13
74.54
72.46
70.73
69.18
67.60
65.78
63.48
60.47
56.67
52.11
46.98
41.45
35.69
29.74
23.54
17.06
10.35
3.61
-2.83
-8.65
-13.62
-17.76
-21.32
-24.70
-28.28
-32.35
-36.95
-42.01
-47.39
-53.11
-59.38
-66.57
-75.14
-85.26
-96.59
-108.02
-117.78
-123.69
-123.79
-116.87
-102.86
-82.98
-59.29
-34.23
-9.98
11.91
30.62
45.91
57.87
66.70
72.61
75.85
76.79
75.96
74.04
71.70
69.51
67.75
66.43
65.43
64.56
63.74
62.98
62.34
61.83
61.38
60.75
59.74
58.11
55.72
52.50
48.48
43.69
38.20
32.04
25.18
17.62
9.32
0.36
-9.09
-18.67
-27.98
-36.55
-44.02
-50.20
-55.06
-58.83
-61.90
-64.86
-68.37
-73.12
-79.72
-88.50
-99.28
-111.19
-122.56
-131.20
-134.81
-131.68
-121.17
-103.89
-81.58
-56.51
-30.89
-6.50
15.47
34.32
49.67
61.27
69.06
73.16
73.98
72.18
68.58
64.01
59.16
54.45
50.12
46.29
43.05
40.57
38.98
38.28
38.15
38.07
37.38
35.61
32.62
28.74
24.49
20.35
16.50
12.71
8.51
3.46
-2.54
-9.18
-15.79
-21.67
-26.33
-29.68
-32.15
-34.45
-37.49
-42.05
-48.59
-57.00
-66.47
-75.46
-81.96
-83.93
-79.86
-69.30
-52.93
-32.51
-10.29
11.54
31.29
48.00
61.34
71.39
78.32
82.37
83.74
82.74
79.78
75.39
70.14
64.55
59.04
53.88
49.28
45.32
42.04
39.38
37.20
35.29
33.41
31.36
28.97
26.13
22.71
18.58
13.55
7.48
0.33
-7.69
-16.14
-24.44
-32.03
-38.54
-43.97
-48.66
-53.29
-58.66
-65.47
-73.99
-83.76
-93.47
-101.11
-104.54
-102.08
-93.15
-78.45
-59.73
-39.13
-18.61
0.48
17.45
32.06
44.25
53.97
61.17
65.87
68.25
68.65
67.47
65.15
62.06
58.48
54.69
50.92
47.41
44.34
41.82
39.77
37.96
35.96
33.36
29.81
25.18
19.58
13.32
6.76
0.20
-6.25
-12.66
-19.21
-26.08
-33.27
-40.54
-47.47
-53.67
-58.95
-63.55
-68.07
-73.34
-79.98
-87.98
-96.45
-103.70
-107.58
-106.19
-98.41
-84.36
-65.30
-43.26
-20.46
1.21
20.50
36.85
50.17
60.68
68.62
74.23
77.71
79.28
79.21
77.85
75.58
72.77
69.74
66.71
63.89
61.39
59.31
57.63
56.19
54.76
53.00
50.65
47.55
43.66
39.02
33.64
27.54
20.67
13.07
4.86
-3.75
-12.47
-21.05
-29.28
-37.13
-44.75
-52.45
-60.69
-69.89
-80.16
-91.03
-101.29
-109.19
-112.79
-110.66
-102.30
-88.35
-70.34
-50.27
-30.03
-11.09
5.62
19.64
30.80
39.10
44.67
47.73
48.62
47.79
45.74
43.03
40.15
37.47
35.24
33.57
32.52
32.19
32.66
33.94
35.79
37.69
38.93
38.83
37.01
33.52
28.81
23.51
18.12
12.80
7.40
1.59
-4.87
-11.99
-19.47
-26.84
-33.69
-39.81
-45.30
-50.53
-56.07
-62.53
-70.42
-79.86
-90.36
-100.70
-109.01
-113.15
-111.37
-102.88
-88.19
-68.94
-47.41
-25.87
-6.02
11.24
25.68
37.44
46.75
53.74
58.50
61.17
62.02
61.42
59.80
57.47
54.55
51.11
47.20
43.03
38.97
35.52
33.01
31.52
30.71
29.99
28.72
26.48
23.21
19.14
14.64
9.99
5.25
0.25
-5.25
-11.44
-18.36
-25.84
-33.63
-41.44
-49.08
-56.39
-63.41
-70.34
-77.58
-85.61
-94.72
-104.69
-114.52
-122.53
-126.70
-125.27
-117.38
-103.32
-84.50
-62.97
-40.82
-19.74
-0.74
15.78
29.85
41.64
51.35
59.08
64.89
68.84
71.11
71.98
71.80
70.87
69.32
67.12
64.09
60.09
55.12
49.39
43.22
36.91
30.65
24.51
18.48
12.56
6.83
1.43
-3.56
-8.11
-12.28
-16.17
-19.90
-23.56
-27.30
-31.28
-35.79
-41.17
-47.74
-55.63
-64.63
-73.99
-82.31
-87.79
-88.61
-83.49
-72.19
-55.60
-35.56
-14.29
6.23
24.66
40.46
53.59
64.30
72.71
78.80
82.44
83.63
82.58
79.75
75.74
71.11
66.30
61.54
56.90
52.43
48.24
44.50
41.36
38.86
36.86
35.06
33.10
30.70
27.71
24.18
20.17
15.68
10.59
4.80
-1.58
-8.14
-14.15
-18.91
-22.03
-23.77
-25.08
-27.42
-32.42
-41.44
-54.99
-72.40
-91.69
-109.81
-123.32
-129.38
-126.57
-115.30
-97.64
-76.54
-54.91
-34.87
-17.45
-2.78
9.49
19.85
28.62
35.96
41.94
46.63
50.17
52.82
54.88
56.59
58.08
59.35
60.36
61.10
61.60
61.93
62.01
61.59
60.27
57.62
53.48
48.05
41.92
35.79
30.21
25.30
20.75
15.95
10.34
3.71
-3.75
-11.46
-18.72
-25.05
-30.42
-35.28
-40.49
-46.96
-55.27
-65.36
-76.33
-86.50
-93.83
-96.37
-92.90
-83.29
-68.54
-50.46
-31.15
-12.46
4.44
19.02
31.27
41.30
49.22
54.92
58.30
59.34
58.29
55.67
52.17
48.46
45.00
41.97
39.41
37.25
35.46
34.02
32.84
31.70
30.23
28.04
24.89
20.76
15.93
10.71
5.39
-0.03
-5.65
-11.66
-18.09
-24.73
-31.18
-37.00
-41.96
-46.10
-49.84
-53.87
-58.94
-65.58
-73.73
-82.57
-90.50
-95.40
-95.26
-88.77
-75.83
-57.57
-36.03
-13.57
7.76
26.61
42.37
55.02
64.86
72.25
77.42
80.46
81.31
79.90
76.28
70.74
63.81
56.20
48.70
41.99
36.52
32.46
29.65
27.69
25.98
23.98
21.27
17.74
13.51
8.87
4.07
-0.84
-5.97
-11.55
-17.72
-24.41
-31.29
-37.81
-43.38
-47.58
-50.37
-52.14
-53.72
-56.10
-60.01
-65.50
-71.72
-76.94
-79.06
-76.22
-67.42
-52.94
-34.21
-13.45
6.93
24.93
39.29
49.61
56.13
59.46
60.25
59.04
56.30
52.48
48.14
43.87
40.13
37.07
34.50
32.01
29.28
26.32
23.48
21.31
20.18
20.01
20.21
19.85
18.02
14.22
8.52
1.52
-5.92
-13.05
-19.53
-25.51
-31.47
-38.00
-45.51
-54.03
-63.19
-72.23
-80.03
-85.28
-86.68
-83.22
-74.57
-61.16
-44.25
-25.54
-6.79
10.63
25.89
38.65
48.86
56.53
61.69
64.51
65.32
64.71
63.34
61.73
60.13
58.44
56.37
53.71
50.46
46.93
43.53
40.54
37.93
35.28
31.98
27.48
21.60
14.58
7.01
-0.45
-7.35
-13.59
-19.48
-25.56
-32.44
-40.58
-50.06
-60.42
-70.49
-78.55
-82.62
-81.06
-73.19
-59.56
-41.87
-22.38
-3.26
13.99
28.69
40.73
50.29
57.48
62.35
64.98
65.56
64.46
62.15
59.02
55.38
51.44
47.37
43.40
39.83
36.96
34.95
33.68
32.67
31.19
28.45
23.95
17.62
9.87
1.43
-6.94
-14.68
-21.60
-27.89
-34.02
-40.58
-48.09
-56.74
-66.16
-75.27
-82.41
-85.73
-83.73
-75.82
-62.56
-45.45
-26.53
-7.71
9.61
24.65
37.10
46.81
53.62
57.42
58.23
56.46
52.89
48.51
44.25
40.75
38.21
36.47
35.27
34.38
33.76
33.47
33.55
33.83
33.92
33.22
31.23
27.67
22.63
16.54
9.96
3.39
-2.92
-8.95
-14.96
-21.30
-28.36
-36.45
-45.60
-55.39
-64.82
-72.35
-76.24
-75.07
-68.19
-56.05
-40.03
-22.05
-4.03
12.55
26.78
38.26
46.89
52.64
55.61
55.95
54.09
50.69
46.59
42.60
39.31
37.00
35.59
34.78
34.20
33.53
32.63
31.44
30.03
28.38
26.39
23.88
20.64
16.55
11.69
6.28
0.67
-4.88
-10.26
-15.66
-21.40
-27.87
-35.39
-44.05
-53.69
-63.80
-73.53
-81.65
-86.78
-87.58
-83.19
-73.55
-59.48
-42.57
-24.72
-7.81
6.70
17.85
25.22
28.87
29.29
27.35
24.16
20.88
18.41
17.18
17.14
17.88
18.85
19.65
20.10
20.27
20.31
20.27
20.05
19.37
17.87
15.31
11.66
7.12
2.04
-3.25
-8.54
-13.84
-19.30
-25.16
-31.63
-38.76
-46.33
-53.65
-59.62
-62.86
-62.04
-56.44
-46.16
-32.25
-16.43
-0.54
13.93
26.09
35.62
42.56
47.03
49.13
48.97
46.81
43.07
38.40
33.45
28.76
24.67
21.32
18.64
16.54
14.86
13.39
11.86
9.90
7.16
3.34
-1.58
-7.36
-13.49
-19.38
-24.58
-28.91
-32.61
-36.26
-40.61
-46.27
-53.42
-61.59
-69.52
-75.43
-77.48
-74.31
-65.58
-52.02
-35.27
-17.30
0.09
15.66
28.72
39.04
46.55
51.32
53.45
53.15
50.83
47.01
42.29
37.25
32.42
28.23
24.92
22.59
21.16
20.35
19.79
18.98
17.52
15.13
11.72
7.42
2.56
-2.49
-7.40
-12.05
-16.55
-21.36
-27.15
-34.60
-44.11
-55.44
-67.59
-78.81
-87.06
-90.55
-88.33
-80.57
-68.39
-53.49
-37.55
-21.93
-7.52
5.15
15.71
23.79
29.14
31.67
31.61
29.55
26.35
22.92
19.98
17.88
16.57
15.75
15.11
14.50
14.03
13.91
14.28
15.02
15.67
15.66
14.52
12.09
8.63
4.63
0.53
-3.42
-7.39
-11.79
-17.14
-23.91
-32.28
-42.07
-52.58
-62.63
-70.69
-75.14
-74.76
-69.07
-58.55
-44.53
-28.69
-12.67
2.39
15.90
27.60
37.32
44.84
49.86
52.25
52.21
50.30
47.33
44.10
41.16
38.71
36.65
34.75
32.84
30.95
29.22
27.88
26.99
26.38
25.63
24.22
21.72
17.91
12.91
7.06
0.87
-5.21
-10.89
-16.16
-21.27
-26.69
-32.94
-40.38
-49.03
-58.36
-67.23
-74.06
-77.13
-75.07
-67.34
-54.46
-37.83
-19.35
-0.95
15.93
30.40
42.07
50.82
56.61
59.49
59.63
57.48
53.79
49.46
45.31
41.90
39.39
37.58
36.12
34.66
33.03
31.29
29.59
28.06
26.66
25.07
22.79
19.32
14.35
7.90
0.34
-7.71
-15.61
-22.87
-29.27
-34.93
-40.22
-45.67
-51.86
-59.13
-67.47
-76.25
-84.26
-89.86
-91.39
-87.64
-78.34
-64.21
-46.83
-28.14
-9.94
6.48
20.43
31.65
40.09
45.71
48.45
48.39
45.85
41.52
36.29
31.19
27.08
24.48
23.49
23.78
24.72
25.61
25.90
25.38
24.16
22.59
21.02
19.65
18.44
17.13
15.41
13.04
10.04
6.61
3.09
-0.20
-3.13
-5.84
-8.69
-12.17
-16.78
-22.88
-30.60
-39.76
-49.72
-59.34
-67.07
-71.21
-70.36
-63.94
-52.33
-36.95
-19.75
-2.71
12.63
25.45
35.51
42.97
48.02
50.76
51.27
49.63
46.16
41.34
35.74
29.90
24.13
18.55
13.14
7.84
2.70
-2.08
-6.22
-9.41
-11.45
-12.33
-12.32
-11.94
-11.83
-12.57
-14.48
-17.59
-21.63
-26.23
-31.06
-35.96
-40.88
-45.92
-51.20
-56.88
-63.15
-70.14
-77.73
-85.32
-91.74
-95.33
-94.40
-87.67
-74.82
-56.61
-34.75
-11.37
11.53
32.47
50.70
66.05
78.67
88.73
96.29
101.28
103.61
103.35
100.78
96.46
91.10
85.42
80.07
75.54
72.16
70.12
69.42
69.70
70.31
70.24
68.49
64.39
57.88
49.54
40.45
31.73
24.20
18.15
13.31
9.04
4.54
-0.95
-7.98
-16.84
-27.58
-40.05
-53.88
-68.63
-83.61
-97.83
-109.92
-118.26
-121.29
-117.98
-108.18
-92.80
-73.61
-52.75
-32.19
-13.33
3.15
17.10
28.64
37.83
44.53
48.53
49.71
48.32
44.96
40.55
35.98
31.86
28.43
25.63
23.44
22.03
21.82
23.18
26.11
30.07
34.03
36.85
37.73
36.42
33.31
29.09
24.39
19.49
14.27
8.41
1.62
-6.16
-14.70
-23.56
-32.23
-40.11
-46.52
-50.68
-51.82
-49.36
-43.12
-33.54
-21.55
-8.40
4.66
16.64
26.87
34.98
40.75
44.08
44.99
43.67
40.55
36.19
31.24
26.25
21.69
17.83
14.85
12.81
11.60
10.97
10.56
9.94
8.70
6.57
3.31
-1.18
-6.94
-13.83
-21.51
-29.46
-37.15
-44.20
-50.59
-56.71
-63.18
-70.52
-78.81
-87.41
-95.00
-99.89
-100.50
-95.91
-86.09
-71.96
-55.08
-37.24
-20.03
-4.56
8.57
19.11
26.97
32.12
34.60
34.58
32.49
28.96
24.77
20.63
16.98
13.95
11.37
9.02
6.74
4.57
2.69
1.23
0.13
-0.95
-2.59
-5.37
-9.67
-15.46
-22.27
-29.35
-36.03
-41.96
-47.30
-52.66
-58.82
-66.45
-75.69
-86.10
-96.55
-105.39
-110.72
-110.84
-104.70
-92.20
-74.38
-53.05
-30.38
-8.32
11.73
29.03
43.28
54.46
62.57
67.73
70.26
70.72
69.88
68.48
67.04
65.71
64.29
62.44
59.87
56.52
52.56
48.37
44.33
40.68
37.42
34.27
30.69
26.01
19.71
11.62
2.11
-8.06
-17.99
-27.02
-35.01
-42.38
-49.85
-58.13
-67.66
-78.44
-90.05
-101.53
-111.52
-118.28
-120.11
-115.74
-104.85
-88.29
-67.85
-45.79
-24.17
-4.41
12.83
27.48
39.78
49.95
58.13
64.39
68.82
71.59
72.96
73.24
72.73
71.69
70.40
69.09
67.98
67.24
66.94
66.98
67.06
66.76
65.69
63.62
60.55
56.72
52.39
47.73
42.70
37.07
30.59
23.11
14.74
5.79
-3.30
-12.22
-20.89
-29.47
-38.35
-47.93
-58.52
-70.19
-82.62
-94.98
-105.87
-113.50
-116.06
-112.28
-101.86
-85.70
-65.66
-43.96
-22.54
-2.67
15.11
30.74
44.21
55.34
63.84
69.49
72.37
72.93
71.85
69.86
67.50
65.06
62.65
60.33
58.19
56.38
55.04
54.20
53.70
53.26
52.56
51.42
49.88
48.21
46.83
46.10
46.20
47.03
48.20
49.13
49.23
48.04
45.31
41.15
35.90
30.12
24.33
18.85
13.70
8.60
3.12
-3.11
-10.16
-17.79
-25.53
-32.91
-39.64
-45.75
-51.51
-57.32
-63.64
-70.75
-78.77
-87.45
-96.07
-103.40
-107.87
-107.96
-102.67
-91.96
-76.72
-58.59
-39.38
-20.57
-3.10
12.56
26.19
37.64
46.75
53.45
57.86
60.31
61.30
61.35
60.91
60.32
59.82
59.55
59.61
60.00
60.68
61.53
62.47
63.41
64.18
64.59
64.40
63.39
61.50
58.84
55.66
52.27
48.87
45.48
41.96
38.10
33.75
28.91
23.71
18.41
13.26
8.46
4.07
-0.04
-4.17
-8.73
-14.22
-21.02
-29.35
-39.04
-49.47
-59.57
-67.94
-73.20
-74.28
-70.84
-63.26
-52.64
-40.40
-27.87
-16.08
-5.53
3.66
11.55
18.15
23.37
27.01
28.95
29.23
28.15
26.18
23.88
21.73
20.04
18.91
18.30
18.07
18.08
18.26
18.56
18.93
19.26
19.32
18.78
17.28
14.58
10.65
5.74
0.26
-5.32
-10.63
-15.56
-20.20
-24.79
-29.55
-34.58
-39.75
-44.80
-49.40
-53.33
-56.52
-59.16
-61.58
-64.20
-67.47
-71.76
-77.28
-83.84
-90.78
-96.93
-100.74
-100.72
-95.85
-85.93
-71.74
-54.79
-36.87
-19.59
-4.01
9.41
20.66
29.92
37.33
42.92
46.67
48.63
48.99
48.19
46.75
45.13
43.59
42.20
40.90
39.59
38.29
37.08
36.05
35.21
34.37
33.18
31.26
28.31
24.25
19.30
13.82
8.26
2.93
-2.14
-7.17
-12.52
-18.52
-25.31
-32.73
-40.47
-48.16
-55.58
-62.76
-69.85
-77.07
-84.64
-92.77
-101.77
-111.97
-123.59
-136.40
-149.43
-160.95
-168.88
-171.52
-168.19
-159.52
-147.12
-132.94
-118.57
-104.69
-91.13
-77.18
-62.09
-45.44
-27.32
-8.22
10.99
29.16
44.98
57.11
64.58
67.27
66.32
64.15
63.84
68.07
77.94
92.34
108.24
121.78
129.88
131.24
126.55
117.73
106.82
95.18
83.27
71.13
58.86
46.94
36.04
26.52
18.12
9.90
0.70
-10.36
-23.42
-37.74
-51.83
-63.75
-71.57
-73.68
-69.19
-58.07
-41.21
-20.19
3.06
26.78
49.64
70.89
90.33
107.92
123.60
137.12
148.08
156.09
160.99
162.96
162.44
160.02
156.25
151.63
146.57
141.52
136.91
132.99
129.61
126.05
121.20
113.91
103.54
90.33
75.37
60.17
45.93
32.84
19.89
5.08
-13.65
-37.63
-66.69
-99.15
-132.37
-163.53
-190.44
-211.82
-227.17
-236.49
-240.06
-238.38
-232.29
-222.88
-211.18
-197.83
-183.02
-166.75
-149.31
-131.59
-114.80
-99.91
-87.00
-75.17
-63.19
-50.31
-36.92
-24.40
-14.39
-7.77
-4.10
-1.77
1.32
6.86
15.41
26.38
38.42
50.09
60.43
69.21
76.77
83.63
90.09
96.06
101.22
105.27
108.24
110.43
112.12
113.26
113.42
111.99
108.58
103.36
97.06
90.61
84.67
79.31
73.92
67.62
59.72
50.17
39.68
29.52
21.02
15.19
12.44
12.70
15.58
20.57
27.07
34.34
41.40
47.24
50.96
52.11
50.57
46.47
40.02
31.45
21.39
11.05
2.26
-3.06
-3.59
0.56
7.58
14.38
17.58
14.79
5.44
-9.06
-25.92
-42.13
-55.52
-65.32
-71.97
-76.44
-79.56
-81.73
-83.18
-84.49
-86.72
-90.95
-97.31
-104.20
-108.45
-106.49
-96.07
-77.47
-53.70
-29.26
-8.32
6.70
15.62
19.71
20.40
18.43
13.69
5.85
-4.87
-17.17
-28.81
-37.50
-41.69
-41.18
-36.93
-30.37
-22.75
-14.71
-6.17
3.41
14.60
27.62
42.05
57.04
71.56
84.54
95.22
103.30
109.03
113.03
115.97
117.82
118.37
117.51
115.51
112.92
110.37
108.40
107.04
105.94
103.59
98.74
91.04
80.92
69.07
55.93
41.92
27.19
12.20
-3.84
-21.23
-39.60
-58.47
-77.98
-99.00
-122.01
-147.01
-172.71
-198.82
-224.19
-246.68
-263.64
-272.89
-273.40
-264.90
-248.79
-215.18
-161.70
-94.02
-22.41
44.49
102.26
146.14
175.69
188.79
184.24
161.78
124.73
80.64
39.40
9.89
-3.92
-3.02
7.16
20.29
29.78
31.80
26.94
19.03
13.33
12.13
14.70
17.13
15.42
6.47
-10.62
-33.14
-56.37
-74.69
-85.54
-88.98
-87.53
-83.88
-74.58
-58.89
-38.55
-24.61
-20.55
-27.39
-41.17
-57.98
-72.63
-80.14
-78.27
-67.64
-51.77
-34.69
-21.17
-13.86
-12.57
-14.33
-15.39
-13.98
-10.18
-5.43
-0.54
3.52
6.58
9.06
11.91
15.87
20.50
24.70
27.22
27.57
25.31
20.61
14.30
7.94
3.23
1.17
1.97
5.25
10.62
17.46
25.08
32.48
38.48
41.75
40.98
35.44
25.47
12.67
-0.53
-11.23
-16.74
-15.14
-6.00
9.10
26.59
41.65
49.56
47.22
34.30
13.30
-11.43
-35.04
-53.42
-63.65
-64.12
-54.71
-37.16
-15.61
3.58
13.49
9.27
-9.43
-37.95
-68.64
-94.54
-112.36
-123.31
-131.16
-138.77
-145.79
-148.76
-143.70
-129.05
-107.13
-82.93
-61.47
-45.38
-34.18
-25.77
-18.65
-13.46
-12.75
-19.38
-34.63
-57.11
-82.87
-106.54
-122.84
-128.08
-121.11
-103.50
-79.13
-52.87
-28.99
-9.76
4.92
16.92
28.53
41.04
54.29
66.95
77.64
85.78
91.91
97.35
103.34
110.36
117.81
124.39
128.68
129.83
127.83
123.23
116.51
107.48
95.44
79.87
61.43
42.48
26.33
15.57
10.49
8.67
6.57
1.89
-4.45
-8.27
-4.12
11.84
39.76
75.89
114.24
149.05
176.61
195.66
206.68
210.78
208.97
202.09
191.07
177.17
161.98
147.14
133.98
123.25
114.88
108.03
101.35
93.60
84.19
73.63
63.42
55.39
50.86
49.90
51.29
53.05
53.37
51.39
47.35
42.24
37.17
32.76
28.96
25.19
20.60
14.25
5.38
-6.56
-21.46
-38.26
-54.83
-68.28
-75.73
-75.05
-65.49
-48.06
-25.21
-0.48
22.26
39.71
49.65
51.33
45.35
33.35
17.59
0.57
-15.33
-28.12
-36.42
-39.80
-38.99
-35.71
-32.12
-30.10
-30.51
-33.18
-37.16
-41.18
-44.16
-45.44
-44.79
-42.22
-38.06
-32.94
-27.82
-23.81
-21.54
-21.42
-23.53
-27.64
-33.28
-39.80
-46.55
-53.18
-59.79
-66.27
-72.85
-79.87
-87.50
-95.33
-102.10
-105.98
-105.28
-99.07
-86.37
-67.39
-43.36
-16.10
12.57
41.33
69.39
95.65
118.34
136.67
149.79
157.37
160.20
160.41
161.11
165.44
174.81
179.44
171.37
146.60
107.20
59.17
8.40
-41.36
-87.94
-130.06
-166.36
-194.10
-211.62
-219.54
-220.69
-218.90
-218.60
-219.92
-221.06
-219.37
-211.53
-195.70
-172.10
-142.69
-110.61
-79.29
-51.49
-29.53
-14.83
-6.92
-4.19
-5.71
-9.96
-15.66
-22.15
-29.25
-37.39
-47.03
-57.85
-68.84
-78.69
-85.90
-89.50
-89.25
-85.63
-79.96
-73.99
-69.09
-65.85
-63.71
-60.88
-55.26
-45.24
-30.47
-12.13
7.56
26.19
42.11
54.89
65.44
75.32
86.04
98.47
112.47
126.86
139.81
149.40
154.29
154.24
150.00
142.92
134.32
125.08
115.43
105.17
94.14
82.65
71.55
61.92
54.52
49.43
45.93
42.70
38.32
32.21
25.07
18.87
15.98
17.98
24.91
35.38
46.88
56.92
64.24
69.39
74.43
81.50
91.52
103.73
116.40
127.10
133.57
134.39
129.30
119.22
105.45
89.31
72.04
55.29
39.94
25.54
10.44
-7.65
-30.64
-59.80
-95.22
-138.20
-184.44
-225.48
-252.47
-261.06
-254.64
-240.45
-225.85
-216.30
-214.11
-218.19
-225.61
-233.12
-238.43
-240.61
-239.34
-234.67
-226.64
-215.25
-200.55
-183.72
-167.14
-153.58
-144.78
-140.38
-138.31
-135.83
-130.74
-122.00
-110.41
-98.22
-88.01
-81.35
-78.05
-76.34
-73.58
-67.26
-55.64
-38.43
-16.78
7.20
31.16
53.25
72.43
88.68
103.14
118.07
136.40
160.97
193.67
234.68
282.14
332.24
379.80
419.28
445.74
455.87
448.62
425.58
390.58
348.56
304.08
259.85
216.26
171.99
125.59
77.10
28.81
-15.36
-51.38
-76.80
-91.56
-97.73
-98.27
-95.82
-92.01
-87.60
-83.10
-79.08
-76.13
-74.21
-72.24
-68.36
-60.83
-49.47
-36.31
-24.99
-18.92
-19.00
-22.42
-23.32
-15.21
6.10
40.58
84.10
130.29
173.09
208.53
235.21
253.48
264.36
268.91
268.18
263.53
256.80
249.87
244.12
239.83
236.20
231.76
225.05
215.10
201.53
184.26
163.25
138.48
110.04
78.48
44.97
11.01
-22.12
-53.95
-85.16
-117.39
-152.70
-192.77
-238.25
-288.42
-341.03
-392.49
-438.29
-473.69
-494.69
-499.06
-487.07
-461.50
-426.89
-388.32
-349.85
-313.65
-279.98
-247.92
-216.49
-185.50
-155.65
-127.96
-103.09
-80.98
-61.23
-43.88
-29.87
-20.98
-19.07
-25.06
-38.31
-56.64
-77.01
-96.59
-113.48
-126.93
-136.90
-143.38
-145.81
-143.07
-133.74
-116.92
-92.74
-62.65
-29.11
5.00
37.11
65.62
90.00
110.51
127.73
142.07
153.48
161.40
164.98
163.59
157.14
146.36
132.55
117.15
101.12
84.73
67.55
49.01
28.95
8.07
-12.06
-29.21
-41.08
-45.86
-42.58
-31.22
-12.49
12.56
42.91
77.68
115.85
155.80
194.92
229.68
256.04
270.46
270.95
257.94
234.35
204.86
174.51
147.21
124.94
107.60
93.95
82.79
73.82
67.94
66.77
71.89
84.00
102.51
125.25
148.64
168.28
180.03
181.42
172.84
157.83
142.10
131.61
130.45
139.53
156.54
177.14
196.42
210.13
215.28
210.23
194.70
169.74
137.78
102.25
66.79
34.41
6.68
-16.51
-36.56
-55.48
-74.99
-96.06
-118.66
-141.92
-164.49
-184.95
-202.21
-215.88
-226.38
-234.80
-242.36
-249.83
-256.94
-262.24
-263.52
-258.62
-246.37
-227.02
-202.16
-173.93
-144.27
-114.25
-84.13
-53.80
-23.43
6.10
33.23
56.16
73.33
83.90
87.96
86.50
81.22
74.11
66.92
60.96
56.69
53.63
50.49
45.74
38.21
27.66
14.69
0.24
-14.64
-29.33
-43.87
-58.98
-75.48
-93.80
-113.46
-133.11
-151.06
-165.20
-173.54
-174.89
-169.44
-158.87
-146.00
-134.09
-126.03
-123.89
-127.39
-133.79
-138.60
-137.07
-125.85
-104.08
-73.70
-36.28
2.84
36.98
61.08
73.79
77.11
74.16
67.12
56.69
42.83
25.46
5.97
-12.91
-28.43
-39.05
-44.76
-47.00
-47.70
-48.37
-49.77
-51.37
-51.92
-50.50
-47.16
-42.94
-39.12
-36.46
-34.70
-32.79
-29.13
-22.37
-12.15
0.72
14.65
27.97
39.58
49.33
57.54
64.66
70.74
75.25
77.30
76.18
71.89
65.35
58.32
52.68
49.69
49.57
51.40
53.68
54.96
54.43
52.13
49.21
47.14
47.03
49.11
52.59
56.10
58.38
58.77
57.40
55.63
54.99
56.54
60.32
65.39
70.33
73.97
75.77
75.85
76.01
78.89
87.46
104.10
129.75
163.43
202.21
241.69
271.27
281.46
266.53
227.49
172.07
111.26
54.58
7.28
-29.50
-57.23
-76.85
-88.70
-92.95
-91.27
-87.17
-85.05
-88.79
-100.23
-118.99
-141.45
-162.50
-177.28
-183.60
-182.49
-177.78
-174.69
-175.33
-181.27
-191.73
-204.10
-211.61
-208.81
-192.64
-163.67
-126.23
-86.90
-52.94
-29.45
-18.24
-17.62
-23.97
-32.91
-40.64
-45.81
-47.35
-44.94
-38.38
-27.88
-14.21
0.72
14.53
25.13
31.39
33.63
33.05
31.32
29.72
28.98
28.89
28.65
27.15
23.45
17.31
9.17
0.28
-7.56
-12.55
-13.73
-11.30
-6.58
-1.53
2.15
3.53
2.75
0.84
-0.83
-1.11
0.55
4.19
9.49
16.08
23.59
31.58
39.41
46.31
51.49
54.48
55.43
55.09
54.65
55.29
57.80
62.29
68.25
74.84
81.17
86.64
91.02
94.34
96.67
97.95
97.92
96.16
92.36
86.41
78.52
69.17
58.92
48.32
37.79
27.61
18.02
9.26
1.60
-4.74
-9.64
-13.18
-15.64
-17.50
-19.26
-21.29
-23.77
-26.64
-29.68
-32.67
-35.49
-38.13
-40.72
-43.43
-46.36
-49.55
-52.92
-56.32
-59.49
-62.04
-63.50
-63.40
-61.43
-57.62
-52.32
-46.19
-39.91
-34.02
-28.80
-24.26
-20.33
-16.90
-13.94
-11.40
-9.08
-6.61
-3.47
0.82
6.52
13.54
21.43
29.59
37.42
44.53
50.74
56.06
60.54
64.16
66.79
68.16
67.90
65.70
61.35
54.83
46.43
36.69
26.34
16.13
6.71
-1.60
-8.76
-15.03
-20.80
-26.41
-32.03
-37.56
-42.62
-46.62
-48.98
-49.20
-47.08
-42.77
-36.72
-29.60
-22.11
-14.87
-8.33
-2.79
1.55
4.62
6.40
7.03
6.75
5.91
4.87
3.89
3.05
2.27
1.41
0.36
-0.86
-2.09
-3.13
-3.81
-4.14
-4.31
-4.61
-5.30
-6.55
-8.29
-10.34
-12.46
-14.42
-16.16
-17.72
-19.28
-21.04
-23.19
-25.82
-28.80
-31.82
-34.36
-35.81
-35.63
-33.53
-29.56
-24.04
-17.52
-10.59
-3.73
2.68
8.37
13.16
16.88
19.43
20.79
21.05
20.43
19.19
17.64
15.97
14.31
12.69
11.08
9.46
7.90
6.48
5.33
4.46
3.79
3.14
2.33
1.26
-0.10
-1.67
-3.40
-5.27
-7.27
-9.45
-11.81
-14.32
-17.01
-19.94
-23.21
-26.77
-30.33
-33.30
-34.90
-34.42
-31.51
-26.34
-19.51
-11.89
-4.27
2.78
8.99
14.27
18.57
21.83
23.98
25.02
25.11
24.55
23.69
22.82
22.05
21.34
20.54
19.49
18.18
16.74
15.40
14.42
13.88
13.71
13.62
13.27
12.37
10.85
8.81
6.53
4.21
1.92
-0.46
-3.15
-6.35
-10.15
-14.44
-18.96
-23.33
-27.08
-29.66
-30.59
-29.55
-26.44
-21.49
-15.20
-8.20
-1.16
5.38
11.02
15.47
18.60
20.35
20.85
20.36
19.22
17.76
16.28
14.92
13.76
12.77
11.92
11.20
10.61
10.17
9.89
9.71
9.49
9.01
8.06
6.50
4.34
1.76
-0.93
-3.48
-5.76
-7.84
-9.92
-12.28
-15.13
-18.53
-22.32
-26.14
-29.42
-31.53
-31.92
-30.28
-26.63
-21.35
-15.02
-8.25
-1.60
4.59
10.11
14.82
18.61
21.36
22.99
23.52
23.10
21.96
20.47
18.97
17.72
16.81
16.13
15.51
14.76
13.85
12.86
11.96
11.24
10.59
9.77
8.47
6.51
3.97
1.12
-1.65
-4.04
-5.93
-7.47
-8.95
-10.71
-13.01
-15.93
-19.32
-22.76
-25.65
-27.33
-27.26
-25.17
-21.15
-15.67
-9.40
-3.03
2.89
8.01
12.22
15.51
17.92
19.45
20.08
19.84
18.86
17.40
15.80
14.36
13.26
12.48
11.87
11.25
10.55
9.84
9.23
8.81
8.50
8.08
7.26
5.82
3.71
1.10
-1.72
-4.43
-6.87
-9.02
-10.99
-12.96
-15.08
-17.47
-20.17
-23.12
-26.17
-28.96
-31.01
-31.73
-30.63
-27.50
-22.54
-16.33
-9.66
-3.29
2.31
6.97
10.76
13.78
16.08
17.59
18.21
17.97
17.04
15.73
14.39
13.24
12.40
11.80
11.30
10.75
10.05
9.20
8.25
7.29
6.43
5.69
4.96
4.07
2.83
1.14
-0.97
-3.34
-5.77
-8.10
-10.28
-12.32
-14.30
-16.38
-18.71
-21.43
-24.59
-28.07
-31.49
-34.27
-35.73
-35.31
-32.73
-28.10
-21.88
-14.76
-7.46
-0.58
5.52
10.70
14.96
18.31
20.74
22.22
22.74
22.42
21.49
20.25
18.97
17.82
16.84
15.99
15.28
14.73
14.43
14.44
14.67
14.98
15.14
14.99
14.42
13.48
12.25
10.84
9.34
7.80
6.26
4.74
3.20
1.56
-0.24
-2.28
-4.52
-6.86
-9.17
-11.37
-13.49
-15.64
-18.00
-20.71
-23.79
-27.09
-30.25
-32.80
-34.16
-33.84
-31.56
-27.36
-21.63
-14.96
-8.06
-1.53
4.21
8.99
12.78
15.63
17.60
18.76
19.18
18.97
18.33
17.41
16.34
15.19
13.92
12.54
11.08
9.67
8.42
7.40
6.57
5.76
4.75
3.31
1.37
-1.01
-3.61
-6.11
-8.24
-9.87
-11.04
-11.94
-12.73
-13.51
-14.20
-14.65
-14.72
-14.39
-13.82
-13.26
-12.98
-13.19
-13.92
-15.05
-16.27
-17.13
-17.14
-15.85
-13.07
-8.88
-3.65
2.09
7.82
13.17
17.92
21.98
25.30
27.80
29.39
30.03
29.77
28.81
27.41
25.80
24.11
22.33
20.41
18.32
16.13
13.96
11.95
10.15
8.51
6.93
5.35
3.76
2.26
0.97
-0.03
-0.76
-1.34
-1.94
-2.77
-3.96
-5.58
-7.59
-9.85
-12.15
-14.30
-16.20
-17.90
-19.58
-21.46
-23.70
-26.18
-28.53
-30.11
-30.27
-28.52
-24.77
-19.35
-12.92
-6.21
0.14
5.77
10.53
14.44
17.57
19.93
21.51
22.30
22.38
21.92
21.15
20.29
19.48
18.77
18.09
17.41
16.73
16.10
15.60
15.26
14.98
14.55
13.79
12.60
11.01
9.15
7.20
5.28
3.39
1.51
-0.43
-2.45
-4.54
-6.65
-8.74
-10.81
-12.90
-15.11
-17.53
-20.15
-22.80
-25.14
-26.71
-27.05
-25.87
-23.15
-19.17
-14.40
-9.41
-4.67
-0.50
2.96
5.70
7.82
9.43
10.58
11.31
11.56
11.31
10.57
9.49
8.30
7.24
6.47
5.99
5.67
5.35
4.91
4.30
3.48
2.40
0.97
-0.84
-2.99
-5.35
-7.70
-9.95
-12.11
-14.32
-16.77
-19.56
-22.65
-25.93
-29.29
-32.72
-36.27
-39.96
-43.68
-47.12
-49.79
-51.17
-50.84
-48.58
-44.38
-38.47
-31.18
-22.98
-14.43
-6.10
1.52
8.16
13.82
18.82
23.54
28.28
33.05
37.48
41.04
43.21
43.73
42.63
40.21
36.93
33.23
29.58
26.35
23.87
22.35
21.78
21.91
22.34
22.58
22.26
21.21
19.50
17.38
15.12
12.89
10.72
8.45
5.90
2.93
-0.37
-3.70
-6.64
-8.80
-9.98
-10.20
-9.63
-8.42
-6.68
-4.39
-1.61
1.53
4.69
7.43
9.33
10.14
9.84
8.68
7.01
5.23
3.58
2.15
0.87
-0.38
-1.67
-2.94
-4.00
-4.68
-4.93
-4.83
-4.66
-4.73
-5.29
-6.46
-8.19
-10.31
-12.60
-14.83
-16.86
-18.67
-20.36
-22.14
-24.24
-26.81
-29.82
-33.02
-35.96
-38.07
-38.85
-37.96
-35.37
-31.30
-26.15
-20.38
-14.40
-8.52
-2.98
2.01
6.22
9.48
11.66
12.83
13.17
13.00
12.62
12.28
12.10
12.13
12.30
12.53
12.70
12.70
12.49
12.08
11.57
11.03
10.46
9.76
8.77
7.37
5.58
3.50
1.28
-1.01
-3.46
-6.31
-9.81
-14.10
-19.13
-24.57
-29.90
-34.43
-37.43
-38.28
-36.60
-32.41
-26.11
-18.39
-10.09
-2.04
5.12
10.98
15.31
18.09
19.44
19.65
19.13
18.36
17.76
17.57
17.79
18.19
18.48
18.43
18.02
17.31
16.38
15.23
13.66
11.42
8.30
4.30
-0.36
-5.32
-10.20
-14.74
-18.85
-22.60
-26.14
-29.65
-33.28
-37.08
-40.93
-44.49
-47.17
-48.30
-47.26
-43.75
-37.96
-30.50
-22.24
-14.02
-6.35
0.58
6.82
12.44
17.39
21.50
24.55
26.46
27.34
27.47
27.17
26.73
26.34
26.02
25.75
25.47
25.13
24.65
23.98
23.01
21.60
19.66
17.15
14.17
10.88
7.49
4.14
0.81
-2.60
-6.20
-9.94
-13.59
-16.68
-18.66
-18.99
-17.37
-13.83
-8.72
-2.70
3.50
9.17
13.89
17.44
19.84
21.20
21.64
21.23
20.08
18.38
16.39
14.42
12.67
11.23
9.98
8.77
7.41
5.82
4.09
2.38
0.89
-0.29
-1.16
-1.87
-2.61
-3.53
-4.69
-6.07
-7.63
-9.31
-11.08
-12.87
-14.52
-15.71
-15.99
-14.98
-12.45
-8.45
-3.34
2.32
7.96
13.09
17.42
20.78
23.08
24.27
24.24
22.98
20.58
17.32
13.61
9.88
6.49
3.61
1.25
-0.67
-2.21
-3.36
-4.12
-4.54
-4.78
-5.11
-5.76
-6.87
-8.42
-10.26
-12.25
-14.27
-16.33
-18.49
-20.82
-23.29
-25.76
-27.89
-29.22
-29.27
-27.70
-24.43
-19.76
-14.26
-8.58
-3.29
1.29
5.07
8.08
10.35
11.88
12.63
12.66
12.15
11.35
10.51
9.77
9.15
8.55
7.90
7.21
6.53
5.92
5.37
4.75
3.90
2.64
0.90
-1.25
-3.64
-6.10
-8.46
-10.72
-12.95
-15.34
-18.03
-21.04
-24.21
-27.18
-29.48
-30.61
-30.23
-28.20
-24.66
-20.05
-15.01
-10.21
-6.22
-3.31
-1.38
-0.10
1.02
2.36
4.15
6.40
9.00
11.76
14.51
17.09
19.40
21.35
22.91
24.15
25.15
26.04
26.91
27.78
28.56
29.02
28.87
27.77
25.48
21.89
17.06
11.17
4.48
-2.76
-10.29
-17.75
-24.66
-30.40
-34.27
-35.73
-34.52
-30.86
-25.42
-19.10
-12.82
-7.18
-2.44
1.50
4.90
7.97
10.75
13.18
15.07
16.28
16.69
16.28
15.12
13.41
11.48
9.74
8.53
7.96
7.86
7.78
7.30
6.21
4.66
3.11
2.17
2.34
3.89
6.87
11.10
16.13
21.28
25.62
28.27
28.84
27.76
26.36
26.43
29.45
35.84
44.65
53.93
61.53
65.96
66.77
64.45
59.85
53.71
46.42
38.19
29.40
20.75
13.18
7.51
4.10
2.58
2.02
1.39
-0.09
-2.59
-5.67
-8.67
-10.99
-12.32
-12.74
-12.45
-11.64
-10.45
-8.94
-7.31
-5.94
-5.30
-5.78
-7.47
-10.13
-13.24
-16.16
-18.29
-19.14
-18.46
-16.23
-12.69
-8.32
-3.68
0.71
4.50
7.60
10.08
12.01
13.39
14.00
13.49
11.54
8.03
3.13
-2.71
-8.86
-14.72
-19.83
-23.93
-26.94
-28.88
-29.87
-30.06
-29.62
-28.78
-27.80
-26.96
-26.53
-26.69
-27.44
-28.65
-30.02
-31.29
-32.27
-32.95
-33.34
-33.38
-32.81
-31.21
-28.15
-23.49
-17.42
-10.50
-3.42
3.22
9.05
13.98
18.04
21.23
23.52
24.76
24.89
24.00
22.40
20.55
18.89
17.68
16.90
16.32
15.56
14.34
12.51
10.15
7.44
4.60
1.78
-0.95
-3.62
-6.31
-9.18
-12.38
-16.06
-20.25
-24.83
-29.38
-33.27
-35.73
-36.11
-34.09
-29.90
-24.27
-18.24
-12.85
-8.83
-6.46
-5.59
-5.79
-6.59
-7.66
-8.88
-10.34
-12.22
-14.67
-17.74
-21.29
-25.03
-28.59
-31.61
-33.87
-35.33
-36.10
-36.41
-36.51
-36.63
-36.97
-37.64
-38.69
-40.03
-41.49
-42.84
-43.90
-44.60
-45.02
-45.40
-46.01
-47.02
-48.37
-49.66
-50.24
-49.34
-46.40
-41.30
-34.43
-26.60
-18.80
-11.82
-6.09
-1.70
1.44
3.37
4.00
3.18
0.87
-2.71
-7.07
-11.61
-15.68
-18.76
-20.48
-20.60
-19.09
-16.22
-12.52
-8.73
-5.63
-3.74
-3.24
-3.94
-5.39
-7.05
-8.53
-9.57
-10.11
-10.30
-10.40
-10.71
-11.42
-12.41
-13.19
-13.03
-11.14
-7.02
-0.60
7.72
17.32
27.57
38.14
48.99
60.23
71.89
83.75
95.36
106.17
115.76
123.96
130.83
136.51
141.07
144.42
146.38
146.81
145.76
143.48
140.33
136.60
132.33
127.28
120.99
113.02
103.21
91.81
79.44
66.88
54.73
43.13
31.76
20.05
7.55
-5.71
-19.05
-31.33
-41.26
-47.80
-50.52
-49.60
-45.82
-40.30
-34.19
-28.49
-23.87
-20.68
-18.94
-18.50
-19.10
-20.46
-22.28
-24.25
-26.03
-27.36
-28.11
-28.33
-28.24
-28.19
-28.43
-28.96
-29.54
-29.79
-29.44
-28.43
-26.96
-25.37
-23.98
-22.96
-22.18
-21.33
-20.05
-18.00
-15.09
-11.44
-7.41
-3.71
-1.12
-0.23
-1.19
-3.68
-6.93
-9.96
-11.89
-12.24
-11.43
-10.20
-9.26
-9.04
-9.66
-11.09
-13.32
-16.34
-20.11
-25.25
-31.98
-39.98
-48.39
-56.30
-63.09
-68.64
-73.17
-76.95
-81.52
-87.92
-96.52
-106.74
-117.66
-128.30
-137.95
-146.18
-152.90
-160.02
-169.31
-181.72
-196.55
-212.16
-226.49
-238.06
-246.53
-242.34
-221.13
-183.81
-136.49
-87.09
-42.04
-4.25
26.12
50.03
68.54
80.93
87.05
86.28
81.55
76.13
72.44
71.59
73.59
77.94
82.87
87.18
90.49
93.55
97.24
102.00
107.73
114.00
120.32
125.55
128.88
130.09
129.59
127.86
125.18
121.59
117.05
111.79
106.17
101.05
97.56
96.73
98.92
103.45
108.80
113.22
115.48
115.27
113.33
110.77
108.37
106.18
103.26
98.16
89.68
77.53
62.47
45.90
29.34
14.28
2.58
-3.75
-3.23
4.27
16.76
30.30
40.09
42.22
33.56
15.34
-7.02
-26.41
-37.64
-40.06
-36.96
-32.62
-29.74
-28.12
-25.22
-18.18
-6.56
7.67
21.08
30.49
34.36
32.85
27.58
20.86
14.37
8.36
1.66
-6.91
-17.84
-30.60
-44.73
-60.09
-77.06
-96.32
-118.35
-142.45
-166.33
-186.46
-195.81
-189.92
-168.98
-138.10
-104.80
-75.62
-54.07
-40.71
-34.66
-34.76
-40.67
-51.70
-66.75
-82.81
-96.32
-104.39
-105.85
-101.40
-92.99
-83.32
-74.51
-67.46
-61.75
-56.40
-50.49
-43.86
-36.82
-29.88
-23.51
-17.65
-11.55
-4.06
5.74
18.00
31.97
46.28
59.42
70.22
78.31
84.12
88.66
92.93
97.40
101.88
105.61
107.86
108.29
107.36
106.12
105.77
107.01
109.73
113.16
116.45
119.18
121.60
124.36
128.03
132.66
137.55
141.52
143.38
142.34
138.34
131.96
124.13
115.71
107.24
98.77
90.01
80.59
70.25
58.97
47.01
34.72
22.58
11.05
0.62
-8.31
-15.46
-20.78
-24.50
-27.03
-28.89
-30.56
-32.39
-34.66
-37.53
-41.03
-45.14
-49.71
-54.57
-59.55
-64.53
-69.53
-74.68
-80.21
-86.23
-92.63
-98.95
-104.46
-108.37
-110.17
-109.83
-107.78
-104.68
-101.13
-97.45
-93.68
-89.79
-85.83
-82.03
-78.74
-76.28
-74.72
-73.87
-73.27
-72.40
-70.78
-68.24
-64.92
-61.26
-57.85
-55.20
-53.64
-53.20
-53.71
-54.87
-56.31
-57.69
-58.73
-59.33
-59.66
-60.09
-60.98
-62.39
-63.79
-64.13
-62.16
-56.93
-48.15
-36.21
-21.95
-6.26
10.11
26.52
42.21
56.16
67.30
74.83
78.51
78.74
76.24
71.62
65.22
57.13
47.42
36.50
25.11
14.14
4.34
-3.87
-10.49
-15.49
-18.91
-20.83
-21.46
-21.21
-20.67
-20.37
-20.55
-21.13
-21.24
-19.94
-16.66
-11.45
-4.97
1.79
7.91
12.75
16.00
18.68
21.98
27.03
34.58
44.89
57.86
73.13
90.06
107.66
126.32
146.40
168.05
190.89
213.83
235.22
253.59
268.04
278.58
288.38
301.13
319.79
345.30
376.18
409.16
440.96
469.30
479.77
462.36
412.41
333.47
236.49
135.28
41.12
-39.44
-104.52
-155.45
-192.94
-218.22
-232.97
-239.63
-240.45
-239.30
-238.85
-240.19
-243.11
-245.02
-243.45
-236.83
-225.18
-210.09
-194.13
-179.44
-167.33
-158.23
-150.14
-141.17
-129.89
-115.90
-99.91
-83.43
-67.91
-54.45
-43.78
-35.73
-29.98
-26.12
-23.80
-22.73
-22.74
-23.42
-24.31
-25.02
-25.12
-24.45
-23.09
-21.31
-19.55
-18.27
-17.72
-17.93
-18.76
-19.91
-21.10
-22.06
-22.50
-22.24
-21.19
-19.41
-17.15
-14.84
-12.90
-11.70
-11.31
-11.55
-12.10
-12.62
-12.93
-13.05
-13.11
-13.26
-13.52
-13.80
-13.93
-13.77
-13.24
-12.35
-11.07
-9.30
-6.74
-3.04
2.18
9.23
18.30
29.51
42.81
57.98
74.46
91.29
107.21
120.87
131.28
138.11
141.78
143.23
143.39
142.70
140.89
137.08
130.21
119.46
104.54
85.78
63.94
40.08
15.42
-8.76
-31.18
-50.69
-66.56
-78.52
-86.90
-92.42
-96.00
-98.45
-100.29
-101.71
-102.64
-102.95
-102.49
-101.29
-99.50
-97.39
-95.25
-93.32
-91.65
-90.10
-88.29
-85.69
-81.70
-75.93
-68.25
-58.98
-48.75
-38.31
-28.33
-19.21
-11.01
-3.63
3.09
9.21
14.60
19.07
22.43
24.60
25.72
26.02
25.83
25.39
24.88
24.38
23.91
23.51
23.23
23.02
22.81
22.35
21.37
19.63
17.00
13.54
9.39
4.79
-0.09
-5.12
-10.18
-15.14
-19.78
-23.86
-27.20
-29.73
-31.64
-33.25
-34.97
-37.11
-39.81
-42.90
-45.94
-48.28
-49.25
-48.30
-45.21
-40.15
-33.60
-26.29
-18.90
-11.97
-5.80
-0.51
3.88
7.35
9.89
11.52
12.34
12.54
12.33
11.83
11.07
10.03
8.72
7.23
5.82
4.76
4.22
4.15
4.39
4.65
4.77
4.70
4.48
4.19
3.81
3.22
2.28
0.89
-0.94
-3.13
-5.55
-8.09
-10.69
-13.34
-16.08
-19.00
-22.20
-25.80
-29.88
-34.48
-39.45
-44.43
-48.81
-51.82
-52.76
-51.17
-46.99
-40.60
-32.66
-23.95
-15.12
-6.62
1.32
8.57
15.00
20.45
24.78
27.90
29.86
30.83
31.03
30.72
30.08
29.23
28.24
27.20
26.24
25.52
25.17
25.19
25.43
25.65
25.60
25.11
24.15
22.78
21.04
18.90
16.27
13.06
9.25
4.92
0.27
-4.48
-9.10
-13.47
-17.50
-21.24
-24.79
-28.33
-32.05
-36.10
-40.47
-44.96
-49.14
-52.37
-53.95
-53.24
-49.92
-44.03
-36.04
-26.66
-16.68
-6.74
2.75
11.55
19.48
26.33
31.87
35.91
38.46
39.76
40.22
40.26
40.18
40.08
39.90
39.56
39.02
38.37
37.77
37.33
37.03
36.69
36.06
34.90
33.10
30.71
27.98
25.16
22.48
19.98
17.58
15.09
12.37
9.32
5.95
2.38
-1.26
-4.88
-8.45
-12.03
-15.79
-19.90
-24.44
-29.25
-33.83
-37.43
-39.16
-38.37
-34.80
-28.76
-20.94
-12.21
-3.33
5.14
12.89
19.72
25.49
30.09
33.46
35.64
36.77
37.07
36.78
36.12
35.29
34.42
33.63
33.01
32.60
32.44
32.52
32.78
33.09
33.31
33.26
32.84
32.04
30.96
29.76
28.61
27.58
26.66
25.68
24.45
22.80
20.63
17.98
15.03
12.00
9.11
6.49
4.14
1.90
-0.49
-3.29
-6.64
-10.50
-14.53
-18.17
-20.74
-21.67
-20.65
-17.79
-13.52
-8.46
-3.25
1.62
5.82
9.20
11.67
13.18
13.76
13.48
12.52
11.10
9.46
7.75
6.10
4.52
3.06
1.72
0.50
-0.62
-1.64
-2.56
-3.33
-3.89
-4.17
-4.18
-4.06
-4.01
-4.24
-4.93
-6.09
-7.62
-9.31
-10.92
-12.31
-13.42
-14.38
-15.44
-16.90
-18.99
-21.76
-24.99
-28.23
-30.88
-32.40
-32.42
-30.82
-27.77
-23.61
-18.74
-13.60
-8.54
-3.84
0.34
3.93
6.91
9.31
11.14
12.40
13.04
13.08
12.65
11.98
11.36
11.02
11.02
11.24
11.40
11.20
10.49
9.29
7.78
6.17
4.59
2.98
1.20
-0.92
-3.38
-5.96
-8.37
-10.33
-11.85
-13.13
-14.58
-16.52
-19.11
-22.25
-25.66
-28.92
-31.61
-33.30
-33.56
-32.07
-28.73
-23.77
-17.71
-11.28
-5.16
0.19
4.60
8.07
10.71
12.55
13.53
13.59
12.69
10.95
8.65
6.16
3.83
1.90
0.45
-0.58
-1.26
-1.66
-1.78
-1.61
-1.22
-0.80
-0.64
-1.05
-2.19
-4.03
-6.38
-8.92
-11.42
-13.74
-15.92
-18.06
-20.31
-22.81
-25.60
-28.67
-31.93
-35.11
-37.87
-39.78
-40.38
-39.40
-36.73
-32.60
-27.42
-21.73
-16.05
-10.75
-6.05
-2.00
1.35
3.90
5.51
6.04
5.47
4.01
2.02
-0.06
-1.92
-3.47
-4.74
-5.75
-6.33
-6.13
-4.78
-2.09
1.71
6.02
10.01
12.96
14.51
14.68
13.80
12.26
10.24
7.73
4.51
0.27
-5.20
-11.93
-19.73
-28.14
-36.49
-43.98
-49.89
-53.73
-55.34
-54.92
-52.83
-49.40
-44.83
-39.18
-32.49
-24.96
-16.92
-8.87
-1.29
5.44
11.11
15.65
19.15
21.69
23.41
24.36
24.61
24.19
23.22
21.95
20.75
20.01
20.01
20.82
22.27
24.07
25.89
27.44
28.56
29.10
28.96
28.04
26.25
23.60
20.19
16.21
11.92
7.54
3.18
-1.21
-5.77
-10.53
-15.36
-19.74
-22.94
-24.20
-23.00
-19.35
-13.75
-6.98
0.13
7.00
13.32
19.00
24.03
28.39
31.99
34.77
36.72
37.94
38.56
38.79
38.80
38.74
38.67
38.61
38.48
38.21
37.70
36.92
35.88
34.64
33.24
31.75
30.15
28.42
26.53
24.43
22.11
19.57
16.80
13.83
10.66
7.34
3.91
0.40
-3.12
-6.61
-10.08
-13.59
-17.25
-21.17
-25.30
-29.36
-32.79
-34.90
-35.08
-32.98
-28.69
-22.66
-15.56
-8.06
-0.65
6.34
12.69
18.26
22.91
26.54
29.15
30.83
31.73
32.06
31.95
31.49
30.70
29.56
28.11
26.41
24.54
22.62
20.77
19.03
17.43
15.90
14.34
12.71
10.97
9.22
7.58
6.19
5.05
4.06
3.02
1.70
0.00
-2.03
-4.19
-6.29
-8.21
-9.94
-11.63
-13.43
-15.49
-17.86
-20.48
-23.16
-25.63
-27.44
-28.11
-27.18
-24.39
-19.78
-13.74
-6.89
0.11
6.66
12.41
17.22
21.08
24.07
26.25
27.69
28.42
28.49
27.97
27.00
25.71
24.26
22.77
21.29
19.79
18.23
16.52
14.67
12.69
10.61
8.46
6.29
4.12
1.97
-0.15
-2.27
-4.42
-6.68
-9.05
-11.54
-14.06
-16.56
-19.00
-21.37
-23.70
-26.00
-28.30
-30.59
-32.86
-35.07
-37.06
-38.63
-39.47
-39.24
-37.69
-34.72
-30.44
-25.10
-19.12
-12.92
-6.90
-1.35
3.55
7.70
11.08
13.67
15.50
16.61
17.07
17.01
16.57
15.88
15.03
14.05
12.96
11.79
10.64
9.67
8.96
8.53
8.27
7.96
7.43
6.59
5.51
4.30
3.10
1.95
0.84
-0.29
-1.43
-2.54
-3.55
-4.49
-5.48
-6.75
-8.54
-10.99
-14.04
-17.45
-20.83
-23.71
-25.67
-26.38
-25.75
-23.88
-21.05
-17.68
-14.21
-10.97
-8.13
-5.76
-3.82
-2.25
-1.03
-0.19
0.24
0.20
-0.29
-1.20
-2.38
-3.67
-4.90
-5.95
-6.83
-7.58
-8.34
-9.18
-10.09
-10.97
-11.74
-12.38
-13.00
-13.74
-14.77
-16.13
-17.78
-19.58
-21.43
-23.31
-25.28
-27.45
-29.97
-32.93
-36.37
-40.16
-44.02
-47.49
-49.97
-50.94
-50.03
-47.16
-42.54
-36.57
-29.75
-22.53
-15.29
-8.32
-1.87
3.87
8.73
12.66
15.66
17.84
19.30
20.15
20.44
20.21
19.49
18.43
17.20
16.02
15.03
14.30
13.79
13.36
12.83
12.02
10.69
8.70
5.95
2.48
-1.52
-5.83
-10.19
-14.50
-18.76
-23.13
-27.84
-33.01
-38.57
-44.16
-49.11
-52.62
-53.95
-52.67
-48.78
-42.69
-35.05
-26.56
-17.80
-9.21
-1.11
6.24
12.58
17.75
21.69
24.47
26.32
27.50
28.27
28.81
29.21
29.49
29.61
29.53
29.26
28.89
28.55
28.30
28.09
27.74
26.99
25.60
23.54
20.93
18.02
15.05
12.12
9.14
5.90
2.21
-2.05
-6.86
-12.07
-17.42
-22.55
-26.93
-29.94
-30.95
-29.48
-25.41
-19.03
-11.00
-2.18
6.62
14.81
22.05
28.23
33.28
37.16
39.75
41.03
41.06
40.08
38.45
36.54
34.60
32.78
31.06
29.43
27.91
26.60
25.61
25.04
24.82
24.73
24.43
23.56
21.88
19.33
16.07
12.38
8.57
4.86
1.31
-2.12
-5.59
-9.27
-13.33
-17.89
-22.96
-28.39
-33.79
-38.49
-41.72
-42.73
-41.06
-36.65
-29.87
-21.45
-12.21
-2.96
5.72
13.44
20.00
25.30
29.32
32.03
33.46
33.69
32.92
31.46
29.62
27.72
25.91
24.20
22.53
20.81
19.12
17.59
16.41
15.67
15.27
14.90
14.18
12.80
10.63
7.78
4.59
1.41
-1.46
-3.90
-5.98
-7.90
-9.91
-12.25
-15.07
-18.44
-22.30
-26.43
-30.37
-33.54
-35.22
-34.81
-32.00
-26.87
-19.86
-11.70
-3.15
5.15
12.75
19.30
24.56
28.32
30.45
31.02
30.30
28.73
26.77
24.76
22.89
21.17
19.49
17.77
15.98
14.18
12.48
11.00
9.81
8.92
8.22
7.50
6.52
5.03
2.90
0.17
-3.00
-6.31
-9.52
-12.46
-15.13
-17.67
-20.29
-23.16
-26.38
-29.89
-33.52
-36.95
-39.70
-41.24
-40.99
-38.59
-33.95
-27.39
-19.58
-11.34
-3.41
3.70
9.79
14.84
18.90
21.99
24.07
25.16
25.34
24.78
23.69
22.25
20.64
19.00
17.44
16.01
14.73
13.55
12.43
11.34
10.33
9.41
8.57
7.66
6.46
4.77
2.54
-0.10
-2.88
-5.51
-7.83
-9.87
-11.82
-13.87
-16.20
-18.90
-22.01
-25.44
-29.00
-32.30
-34.77
-35.84
-35.08
-32.40
-28.05
-22.53
-16.39
-10.09
-3.94
1.86
7.11
11.58
15.07
17.45
18.78
19.25
19.14
18.70
18.09
17.36
16.51
15.50
14.31
12.99
11.61
10.25
9.01
7.89
6.85
5.81
4.65
3.32
1.81
0.17
-1.53
-3.20
-4.83
-6.50
-8.35
-10.58
-13.32
-16.62
-20.38
-24.28
-27.84
-30.48
-31.63
-30.95
-28.35
-24.11
-18.74
-12.83
-6.87
-1.17
4.15
9.09
13.60
17.51
20.60
22.63
23.49
23.29
22.26
20.68
18.81
16.83
14.85
12.96
11.22
9.66
8.16
6.57
4.74
2.60
0.22
-2.23
-4.59
-6.75
-8.72
-10.58
-12.42
-14.36
-16.50
-18.96
-21.75
-24.68
-27.32
-29.03
-29.18
-27.36
-23.55
-18.18
-11.91
-5.46
0.60
5.93
10.39
13.94
16.60
18.37
19.25
19.30
18.60
17.31
15.61
13.71
11.76
9.90
8.14
6.40
4.56
2.46
0.00
-2.83
-5.97
-9.29
-12.63
-15.84
-18.78
-21.30
-23.31
-24.80
-25.86
-26.76
-27.82
-29.32
-31.36
-33.71
-35.82
-36.93
-36.32
-33.51
-28.45
-21.48
-13.30
-4.66
3.76
11.48
18.27
24.07
28.84
32.56
35.16
36.60
36.88
36.16
34.71
32.90
31.04
29.34
27.78
26.21
24.48
22.52
20.42
18.38
16.58
15.05
13.67
12.18
10.37
8.11
5.45
2.52
-0.51
-3.55
-6.62
-9.82
-13.31
-17.21
-21.54
-26.18
-30.82
-34.98
-38.06
-39.46
-38.74
-35.73
-30.60
-23.82
-16.08
-8.05
-0.34
6.62
12.57
17.40
21.12
23.81
25.59
26.64
27.11
27.17
26.97
26.61
26.18
25.67
25.10
24.46
23.75
22.99
22.24
21.52
20.81
20.04
19.07
17.75
15.96
13.62
10.74
7.44
3.86
0.21
-3.40
-6.85
-10.14
-13.29
-16.36
-19.44
-22.61
-25.97
-29.60
-33.45
-37.30
-40.69
-43.00
-43.57
-41.93
-37.92
-31.87
-24.39
-16.28
-8.24
-0.77
5.92
11.80
16.90
21.21
24.65
27.12
28.55
28.96
28.51
27.43
26.02
24.55
23.26
22.25
21.57
21.16
20.96
20.84
20.64
20.21
19.42
18.23
16.71
15.04
13.38
11.86
10.44
8.97
7.29
5.26
2.89
0.28
-2.41
-5.07
-7.67
-10.24
-12.89
-15.74
-18.90
-22.45
-26.33
-30.24
-33.64
-35.79
-35.98
-33.79
-29.25
-22.90
-15.61
-8.32
-1.74
3.79
8.25
11.83
14.70
16.92
18.46
19.21
19.19
18.49
17.29
15.78
14.15
12.55
11.17
10.15
9.65
9.69
10.15
10.75
11.14
11.02
10.28
9.00
7.34
5.49
3.52
1.45
-0.73
-2.94
-5.10
-7.09
-8.90
-10.63
-12.49
-14.67
-17.35
-20.61
-24.42
-28.63
-32.93
-36.83
-39.70
-40.94
-40.15
-37.29
-32.66
-26.79
-20.29
-13.64
-7.21
-1.22
4.18
8.85
12.71
15.70
17.80
19.04
19.52
19.36
18.77
17.95
17.09
16.37
15.89
15.67
15.66
15.74
15.74
15.44
14.70
13.46
11.75
9.71
7.48
5.16
2.79
0.37
-2.06
-4.44
-6.69
-8.78
-10.72
-12.65
-14.72
-17.11
-19.95
-23.32
-27.15
-31.22
-35.08
-38.12
-39.69
-39.26
-36.59
-31.81
-25.39
-17.99
-10.38
-3.18
3.12
8.29
12.29
15.22
17.23
18.48
19.11
19.21
18.91
18.31
17.52
16.61
15.63
14.61
13.58
12.61
11.76
11.10
10.62
10.24
9.87
9.35
8.52
7.23
5.38
2.96
0.07
-3.11
-6.34
-9.47
-12.44
-15.32
-18.26
-21.46
-25.06
-29.10
-33.45
-37.78
-41.54
-44.03
-44.64
-42.94
-38.90
-32.89
-25.56
-17.66
-9.86
-2.61
3.83
9.38
13.98
17.58
20.07
21.43
21.76
21.27
20.30
19.13
17.99
16.91
15.86
14.74
13.53
12.31
11.20
10.30
9.63
9.08
8.43
7.47
5.97
3.83
1.09
-2.13
-5.59
-9.05
-12.32
-15.30
-18.01
-20.57
-23.17
-26.05
-29.39
-33.22
-37.35
-41.29
-44.35
-45.78
-45.00
-41.75
-36.22
-28.94
-20.61
-11.95
-3.55
4.26
11.35
17.72
23.40
28.34
32.40
35.40
37.20
37.83
37.52
36.61
35.46
34.33
33.27
32.27
31.25
30.19
29.13
28.16
27.29
26.44
25.48
24.24
22.57
20.42
17.80
14.80
11.54
8.15
4.71
1.30
-2.07
-5.43
-8.86
-12.48
-16.39
-20.65
-25.22
-29.91
-34.37
-38.07
-40.41
-40.83
-38.98
-34.80
-28.64
-21.09
-12.92
-4.86
2.57
9.05
14.51
18.98
22.54
25.27
27.16
28.20
28.41
27.89
26.86
25.61
24.36
23.26
22.30
21.36
20.38
19.33
18.25
17.20
16.17
15.06
13.72
12.06
10.10
7.94
5.71
3.47
1.19
-1.21
-3.76
-6.46
-9.25
-12.09
-15.00
-18.06
-21.38
-25.02
-28.97
-33.04
-36.90
-40.00
-41.74
-41.52
-39.01
-34.20
-27.50
-19.60
-11.24
-3.04
4.60
11.53
17.68
23.02
27.47
30.93
33.33
34.69
35.12
34.80
33.93
32.70
31.29
29.86
28.52
27.34
26.33
25.44
24.51
23.38
21.87
19.87
17.37
14.44
11.23
7.91
4.59
1.33
-1.92
-5.23
-8.66
-12.16
-15.60
-18.73
-21.37
-23.47
-25.22
-26.99
-29.20
-32.12
-35.66
-39.34
-42.34
-43.71
-42.67
-38.75
-32.08
-23.27
-13.32
-3.35
5.76
13.53
19.93
25.25
29.86
34.02
37.73
40.83
43.08
44.26
44.32
43.30
41.37
38.77
35.78
32.66
29.69
27.04
24.80
22.94
21.38
19.96
18.52
16.94
15.15
13.12
10.88
8.47
5.93
3.28
0.54
-2.25
-5.04
-7.80
-10.49
-13.11
-15.69
-18.28
-20.94
-23.76
-26.86
-30.29
-33.98
-37.65
-40.79
-42.77
-43.02
-41.22
-37.37
-31.83
-25.14
-17.98
-10.89
-4.30
1.56
6.59
10.82
14.29
17.02
19.00
20.20
20.66
20.49
19.89
19.05
18.09
17.04
15.87
14.59
13.29
12.13
11.23
10.55
9.84
8.69
6.67
3.50
-0.92
-6.43
-12.70
-19.33
-25.92
-32.08
-37.50
-41.92
-45.20
-47.32
-48.39
-48.68
-48.57
-48.48
-48.80
-49.69
-51.03
-52.33
-52.86
-51.85
-48.83
-43.74
-36.97
-29.21
-21.17
-13.34
-5.96
0.96
7.43
13.38
18.61
22.91
26.11
28.18
29.21
29.42
29.03
28.26
27.29
26.24
25.16
24.05
22.86
21.58
20.18
18.63
16.91
14.93
12.65
10.03
7.15
4.11
1.04
-1.96
-4.84
-7.60
-10.24
-12.77
-15.19
-17.48
-19.66
-21.77
-23.86
-26.04
-28.34
-30.71
-32.88
-34.31
-34.31
-32.16
-27.46
-20.28
-11.23
-1.24
8.76
18.09
26.41
33.64
39.82
44.97
49.07
52.07
54.02
55.07
55.40
55.23
54.73
54.00
53.06
51.80
50.12
47.88
45.06
41.77
38.22
34.71
31.48
28.66
26.26
24.15
22.10
19.85
17.18
13.93
10.02
5.59
0.90
-3.67
-7.79
-11.27
-14.17
-16.80
-19.58
-22.87
-26.77
-31.00
-34.98
-37.89
-38.97
-37.67
-33.86
-27.80
-20.18
-11.90
-3.85
3.24
9.01
13.42
16.62
18.87
20.38
21.26
21.62
21.55
21.14
20.47
19.53
18.25
16.55
14.46
12.15
9.94
8.17
7.10
6.82
7.12
7.65
7.99
7.75
6.73
4.93
2.56
-0.10
-2.75
-5.25
-7.55
-9.80
-12.25
-15.16
-18.67
-22.80
-27.28
-31.61
-35.04
-36.79
-36.23
-33.13
-27.74
-20.71
-12.92
-5.22
1.75
7.63
12.32
15.82
18.18
19.48
19.79
19.29
18.20
16.80
15.30
13.84
12.43
11.02
9.58
8.13
6.76
5.57
4.61
3.82
3.05
2.04
0.61
-1.35
-3.81
-6.64
-9.70
-12.89
-16.15
-19.51
-23.04
-26.85
-31.01
-35.54
-40.30
-44.88
-48.68
-50.98
-51.14
-48.82
-44.12
-37.53
-29.82
-21.77
-13.99
-6.90
-0.67
4.62
8.97
12.39
14.86
16.36
16.90
16.59
15.61
14.21
12.65
11.10
9.67
8.36
7.17
6.10
5.14
4.26
3.34
2.16
0.54
-1.58
-4.16
-7.01
-9.94
-12.83
-15.66
-18.50
-21.56
-25.05
-29.24
-34.25
-39.95
-45.79
-50.80
-53.86
-54.02
-50.87
-44.78
-36.79
-28.24
-20.30
-13.69
-8.58
-4.72
-1.78
0.45
2.02
2.86
2.97
2.51
1.74
0.89
0.05
-0.86
-2.01
-3.52
-5.32
-7.14
-8.67
-9.73
-10.33
-10.74
-11.34
-12.41
-14.01
-15.97
-17.97
-19.69
-20.98
-21.94
-22.89
-24.30
-26.56
-29.88
-34.16
-38.92
-43.32
-46.36
-47.03
-44.66
-39.06
-30.63
-20.21
-8.85
2.42
12.82
21.85
29.24
34.88
38.76
40.96
41.66
41.13
39.69
37.72
35.48
33.16
30.83
28.50
26.20
24.03
22.15
20.72
19.78
19.15
18.49
17.35
15.42
12.63
9.19
5.54
2.09
-0.90
-3.47
-5.92
-8.72
-12.32
-16.94
-22.44
-28.25
-33.44
-36.87
-37.52
-34.70
-28.38
-19.14
-8.03
3.70
14.97
25.00
33.36
39.88
44.49
47.10
47.72
46.43
43.53
39.50
34.90
30.22
25.79
21.72
17.95
14.35
10.85
7.41
3.99
0.53
-3.16
-7.27
-11.94
-17.14
-22.58
-27.83
-32.42
-36.00
-38.51
-40.15
-41.38
-42.72
-44.62
-47.27
-50.51
-53.74
-56.03
-56.33
-53.78
-47.96
-39.07
-27.81
-15.21
-2.32
10.07
21.46
31.62
40.43
47.77
53.51
57.58
60.07
61.20
61.32
60.72
59.60
58.04
55.99
53.45
50.48
47.29
44.13
41.29
38.90
36.92
35.12
33.12
30.59
27.35
23.48
19.21
14.89
10.77
6.93
3.29
-0.38
-4.35
-8.88
-14.14
-20.07
-26.32
-32.15
-36.57
-38.55
-37.37
-32.85
-25.46
-16.11
-5.90
4.21
13.55
21.82
28.90
34.74
39.31
42.57
44.53
45.33
45.21
44.45
43.32
41.96
40.41
38.64
36.64
34.50
32.37
30.44
28.84
27.57
26.55
25.59
24.45
22.88
20.71
17.85
14.36
10.44
6.32
2.24
-1.66
-5.34
-8.85
-12.33
-15.97
-19.99
-24.52
-29.51
-34.56
-38.94
-41.72
-42.00
-39.30
-33.66
-25.67
-16.25
-6.37
3.14
11.80
19.31
25.57
30.53
34.17
36.55
37.80
38.12
37.69
36.68
35.18
33.24
30.94
28.44
25.98
23.82
22.16
21.08
20.43
19.95
19.37
18.49
17.27
15.80
14.20
12.53
10.76
8.75
6.37
3.56
0.33
-3.23
-7.00
-10.85
-14.70
-18.47
-22.11
-25.68
-29.32
-33.19
-37.38
-41.66
-45.49
-48.06
-48.55
-46.40
-41.55
-34.44
-25.86
-16.69
-7.70
0.58
7.90
14.14
19.26
23.18
25.86
27.29
27.51
26.70
25.10
23.00
20.65
18.24
15.86
13.56
11.43
9.57
8.12
7.21
6.84
6.93
7.25
7.54
7.56
7.15
6.27
4.96
3.31
1.44
-0.64
-2.93
-5.49
-8.34
-11.43
-14.66
-17.89
-21.11
-24.43
-28.03
-32.04
-36.33
-40.43
-43.59
-45.04
-44.19
-40.88
-35.37
-28.28
-20.37
-12.37
-4.89
1.67
7.15
11.53
14.90
17.41
19.22
20.43
21.12
21.36
21.21
20.74
20.03
19.13
18.06
16.86
15.52
14.05
12.44
10.71
8.90
7.08
5.32
3.74
2.41
1.29
0.23
-0.99
-2.58
-4.63
-7.05
-9.60
-12.03
-14.22
-16.22
-18.25
-20.57
-23.37
-26.66
-30.29
-33.92
-37.06
-39.16
-39.66
-38.20
-34.70
-29.45
-23.03
-16.18
-9.53
-3.54
1.57
5.76
9.09
11.61
13.36
14.33
14.57
14.17
13.30
12.15
10.93
9.75
8.63
7.58
6.57
5.63
4.82
4.16
3.61
3.04
2.28
1.17
-0.37
-2.34
-4.64
-7.15
-9.71
-12.22
-14.62
-16.98
-19.39
-22.00
-24.89
-28.13
-31.73
-35.65
-39.77
-43.81
-47.31
-49.64
-50.25
-48.75
-45.15
-39.83
-33.40
-26.55
-19.82
-13.54
-7.88
-2.92
1.25
4.50
6.72
7.92
8.24
7.95
7.37
6.74
6.20
5.72
5.24
4.71
4.11
3.55
3.14
2.93
2.84
2.69
2.23
1.23
-0.47
-2.86
-5.78
-8.96
-12.11
-14.99
-17.55
-19.95
-22.51
-25.62
-29.59
-34.44
-39.82
-45.02
-49.12
-51.21
-50.67
-47.31
-41.44
-33.69
-24.81
-15.47
-6.16
2.77
11.03
18.32
24.31
28.77
31.64
33.11
33.52
33.24
32.57
31.67
30.62
29.43
28.17
26.90
25.69
24.58
23.57
22.64
21.73
20.71
19.44
17.74
15.50
12.70
9.44
5.92
2.41
-0.92
-4.02
-7.07
-10.40
-14.39
-19.27
-24.97
-31.03
-36.65
-40.87
-42.79
-41.81
-37.76
-30.93
-22.00
-11.84
-1.36
8.68
17.76
25.59
32.07
37.25
41.20
43.96
45.59
46.18
45.87
44.89
43.46
41.83
40.17
38.53
36.92
35.31
33.68
32.06
30.52
29.12
27.87
26.66
25.31
23.63
21.48
18.82
15.69
12.24
8.61
4.91
1.18
-2.58
-6.48
-10.61
-15.10
-19.99
-25.20
-30.45
-35.22
-38.79
-40.43
-39.52
-35.83
-29.54
-21.24
-11.81
-2.16
6.99
15.18
22.29
28.34
33.36
37.31
40.06
41.50
41.61
40.59
38.79
36.63
34.49
32.59
30.98
29.60
28.32
27.05
25.78
24.54
23.42
22.43
21.50
20.41
18.91
16.75
13.91
10.53
6.89
3.32
0.02
-2.95
-5.70
-8.35
-11.07
-14.05
-17.46
-21.47
-26.05
-30.88
-35.30
-38.41
-39.34
-37.54
-32.99
-26.21
-18.07
-9.48
-1.22
6.22
12.57
17.75
21.74
24.54
26.21
26.87
26.67
25.85
24.65
23.27
21.86
20.47
19.07
17.65
16.22
14.83
13.55
12.41
11.40
10.44
9.41
8.19
6.68
4.82
2.60
0.10
-2.59
-5.30
-7.92
-10.38
-12.73
-15.13
-17.78
-20.87
-24.50
-28.60
-32.91
-36.95
-40.08
-41.63
-41.06
-38.19
-33.26
-26.86
-19.77
-12.69
-6.11
-0.28
4.72
8.85
12.03
14.18
15.27
15.41
14.84
13.86
12.71
11.54
10.41
9.27
8.10
6.91
5.81
4.93
4.35
4.03
3.75
3.25
2.24
0.60
-1.60
-4.11
-6.62
-8.93
-10.96
-12.84
-14.79
-17.08
-19.88
-23.21
-26.86
-30.36
-33.11
-34.45
-33.95
-31.47
-27.21
-21.67
-15.44
-9.10
-3.12
2.22
6.79
10.55
13.52
15.72
17.14
17.75
17.55
16.67
15.35
13.89
12.53
11.34
10.27
9.20
8.06
6.93
5.91
5.08
4.35
3.49
2.24
0.43
-1.91
-4.55
-7.17
-9.56
-11.65
-13.61
-15.77
-18.45
-21.85
-25.89
-30.15
-33.95
-36.53
-37.27
-35.83
-32.28
-27.02
-20.62
-13.74
-6.93
-0.59
5.04
9.86
13.83
16.99
19.33
20.87
21.63
21.65
21.06
19.99
18.62
17.08
15.49
13.98
12.63
11.52
10.66
9.94
9.17
8.06
6.38
4.04
1.15
-2.01
-5.13
-7.93
-10.35
-12.46
-14.45
-16.62
-19.21
-22.41
-26.29
-30.68
-35.13
-38.91
-41.18
-41.21
-38.67
-33.72
-26.99
-19.36
-11.64
-4.38
2.14
7.92
12.96
17.21
20.54
22.80
23.94
24.11
23.58
22.66
21.60
20.49
19.29
17.96
16.46
14.91
13.50
12.41
11.69
11.23
10.77
9.96
8.55
6.47
3.88
1.01
-1.87
-4.66
-7.42
-10.32
-13.53
-17.20
-21.36
-25.94
-30.70
-35.25
-38.98
-41.14
-41.02
-38.25
-32.90
-25.54
-17.00
-8.18
0.27
7.93
14.62
20.24
24.68
27.84
29.67
30.23
29.78
28.69
27.35
26.08
25.03
24.18
23.41
22.61
21.70
20.73
19.80
19.00
18.32
17.59
16.56
14.98
12.74
9.87
6.61
3.22
-0.04
-3.09
-5.98
-8.92
-12.16
-15.92
-20.30
-25.23
-30.34
-35.00
-38.38
-39.69
-38.37
-34.32
-27.95
-20.03
-11.47
-3.08
4.61
11.36
17.06
21.66
25.10
27.27
28.17
27.92
26.83
25.28
23.59
21.99
20.52
19.12
17.72
16.34
15.03
13.90
13.02
12.35
11.77
11.07
10.03
8.49
6.41
3.87
1.05
-1.86
-4.70
-7.45
-10.23
-13.19
-16.54
-20.38
-24.69
-29.28
-33.70
-37.34
-39.44
-39.36
-36.76
-31.74
-24.83
-16.81
-8.50
-0.53
6.64
12.73
17.57
21.03
23.07
23.76
23.38
22.30
20.91
19.50
18.17
16.83
15.33
13.53
11.46
9.30
7.28
5.65
4.42
3.46
2.46
1.13
-0.69
-2.99
-5.62
-8.37
-11.05
-13.59
-15.97
-18.29
-20.70
-23.40
-26.53
-30.06
-33.66
-36.76
-38.56
-38.37
-35.76
-30.80
-23.98
-16.09
-7.93
-0.10
7.02
13.26
18.50
22.60
25.45
27.00
27.39
26.89
25.85
24.56
23.16
21.66
20.03
18.26
16.44
14.74
13.28
12.15
11.31
10.57
9.70
8.45
6.66
4.29
1.48
-1.57
-4.64
-7.64
-10.59
-13.68
-17.11
-21.04
-25.48
-30.19
-34.76
-38.55
-40.84
-41.03
-38.74
-34.00
-27.24
-19.25
-10.92
-3.06
3.86
9.67
14.43
18.27
21.19
23.10
23.92
23.68
22.60
21.03
19.30
17.57
15.86
14.08
12.22
10.43
8.93
7.88
7.24
6.75
6.00
4.70
2.69
0.09
-2.82
-5.71
-8.35
-10.70
-12.90
-15.25
-18.08
-21.64
-25.95
-30.76
-35.48
-39.30
-41.36
-41.02
-38.02
-32.54
-25.20
-16.82
-8.22
-0.05
7.29
13.61
18.83
22.90
25.76
27.43
28.00
27.72
26.90
25.83
24.71
23.63
22.57
21.49
20.36
19.21
18.12
17.15
16.31
15.50
14.54
13.22
11.37
8.97
6.17
3.26
0.52
-1.92
-4.17
-6.54
-9.41
-13.06
-17.55
-22.64
-27.90
-32.69
-36.31
-38.06
-37.39
-34.07
-28.34
-20.84
-12.48
-4.12
3.63
10.51
16.48
21.58
25.72
28.68
30.24
30.38
29.30
27.39
25.09
22.73
20.45
18.28
16.16
14.05
11.96
9.93
8.03
6.34
4.88
3.63
2.51
1.33
-0.14
-2.08
-4.51
-7.32
-10.23
-12.94
-15.34
-17.50
-19.67
-22.14
-25.08
-28.51
-32.32
-36.30
-40.17
-43.56
-45.93
-46.62
-44.97
-40.61
-33.67
-24.78
-14.96
-5.21
3.73
11.55
18.26
23.98
28.71
32.32
34.59
35.43
35.03
33.77
32.15
30.58
29.21
27.97
26.66
25.16
23.45
21.69
20.09
18.82
17.86
17.07
16.19
14.96
13.20
10.86
7.99
4.71
1.22
-2.34
-5.82
-9.14
-12.26
-15.19
-18.04
-21.01
-24.38
-28.39
-33.04
-38.03
-42.59
-45.72
-46.39
-43.97
-38.41
-30.30
-20.66
-10.61
-1.03
7.56
14.96
21.21
26.34
30.39
33.30
35.07
35.73
35.46
34.46
32.99
31.26
29.44
27.65
25.99
24.47
23.11
21.86
20.69
19.57
18.48
17.38
16.16
14.64
12.60
9.92
6.60
2.87
-0.91
-4.43
-7.56
-10.37
-13.12
-16.12
-19.62
-23.73
-28.49
-33.78
-39.35
-44.73
-49.25
-52.13
-52.67
-50.47
-45.59
-38.54
-30.10
-21.19
-12.51
-4.54
2.52
8.67
13.94
18.33
21.78
24.20
25.61
26.14
26.07
25.72
25.36
25.11
24.94
24.74
24.45
24.09
23.73
23.44
23.25
23.10
22.88
22.46
21.72
20.53
18.79
16.41
13.38
9.82
5.90
1.80
-2.34
-6.46
-10.60
-14.84
-19.27
-23.95
-28.91
-34.11
-39.33
-44.16
-47.95
-49.98
-49.57
-46.38
-40.54
-32.65
-23.62
-14.41
-5.82
1.71
8.02
13.16
17.19
20.13
22.01
22.93
23.07
22.73
22.16
21.54
20.96
20.44
20.00
19.66
19.43
19.28
19.13
18.92
18.60
18.12
17.43
16.42
14.99
13.10
10.88
8.59
6.52
4.88
3.66
2.66
1.52
-0.10
-2.44
-5.67
-9.83
-14.83
-20.45
-26.21
-31.40
-35.12
-36.56
-35.18
-30.99
-24.51
-16.64
-8.37
-0.49
6.45
12.22
16.71
19.85
21.60
21.95
21.02
19.11
16.63
13.99
11.51
9.38
7.64
6.25
5.16
4.29
3.60
2.99
2.34
1.50
0.33
-1.28
-3.35
-5.83
-8.58
-11.45
-14.29
-17.03
-19.65
-22.30
-25.20
-28.63
-32.75
-37.55
-42.62
-47.25
-50.54
-51.66
-50.11
-45.86
-39.33
-31.24
-22.35
-13.34
-4.71
3.21
10.16
15.94
20.41
23.50
25.28
25.93
25.69
24.78
23.43
21.81
20.02
18.20
16.45
14.86
13.51
12.40
11.44
10.50
9.39
7.96
6.08
3.68
0.80
-2.44
-5.79
-8.98
-11.84
-14.38
-16.89
-19.81
-23.61
-28.48
-34.21
-40.10
-45.06
-47.96
-47.87
-44.38
-37.70
-28.62
-18.26
-7.82
1.78
9.98
16.64
21.87
25.84
28.69
30.49
31.32
31.31
30.70
29.76
28.70
27.65
26.63
25.58
24.47
23.28
22.06
20.87
19.69
18.45
16.99
15.13
12.72
9.69
6.11
2.14
-1.98
-6.05
-10.02
-14.01
-18.27
-23.06
-28.54
-34.57
-40.69
-46.13
-49.97
-51.38
-49.88
-45.44
-38.50
-29.82
-20.25
-10.56
-1.29
7.15
14.47
20.40
24.69
27.22
28.06
27.58
26.26
24.60
22.96
21.44
19.93
18.26
16.37
14.31
12.25
10.38
8.74
7.19
5.45
3.18
0.14
-3.75
-8.35
-13.37
-18.48
-23.46
-28.21
-32.82
-37.49
-42.43
-47.76
-53.41
-59.03
-63.99
-67.36
-68.12
-65.45
-58.95
-48.89
-36.17
-22.12
-8.09
4.82
15.94
25.08
32.28
37.78
41.78
44.49
46.09
46.79
46.84
46.50
45.98
45.42
44.83
44.15
43.32
42.36
41.41
40.68
40.35
40.46
40.79
40.93
40.41
38.89
36.30
32.86
29.00
25.14
21.57
18.30
15.10
11.65
7.61
2.80
-2.76
-8.82
-14.88
-20.22
-24.03
-25.53
-24.21
-20.01
-13.41
-5.32
3.13
10.93
17.45
22.57
26.53
29.74
32.49
34.84
36.64
37.71
37.93
37.36
36.17
34.56
32.69
30.68
28.61
26.65
24.93
23.56
22.50
21.63
20.72
19.64
18.35
16.88
15.32
13.64
11.73
9.42
6.63
3.45
0.12
-3.04
-5.74
-7.89
-9.57
-11.04
-12.66
-14.78
-17.64
-21.22
-25.22
-28.93
-31.38
-31.54
-28.73
-22.81
-14.31
-4.31
5.99
15.51
23.63
30.16
35.15
38.76
41.11
42.28
42.40
41.70
40.45
38.92
37.21
35.30
33.01
30.16
26.70
22.69
18.37
14.06
10.02
6.43
3.32
0.59
-1.92
-4.32
-6.71
-9.12
-11.52
-13.92
-16.32
-18.71
-21.06
-23.29
-25.35
-27.29
-29.25
-31.49
-34.25
-37.63
-41.45
-45.27
-48.43
-50.25
-50.18
-47.99
-43.77
-37.95
-31.07
-23.77
-16.59
-9.92
-4.02
0.96
4.93
7.88
9.80
10.80
11.05
10.80
10.30
9.77
9.31
8.97
8.70
8.47
8.28
8.18
8.23
8.49
8.92
9.38
9.67
9.54
8.73
7.10
4.68
1.69
-1.49
-4.47
-7.01
-9.10
-10.91
-12.74
-14.83
-17.31
-20.20
-23.42
-26.86
-30.31
-33.46
-35.78
-36.71
-35.76
-32.74
-27.84
-21.65
-14.96
-8.53
-2.87
1.79
5.50
8.39
10.62
12.27
13.38
14.00
14.20
14.09
13.84
13.60
13.49
13.58
13.80
14.06
14.22
14.18
13.94
13.60
13.23
12.87
12.37
11.49
9.98
7.72
4.80
1.52
-1.76
-4.77
-7.43
-9.84
-12.22
-14.75
-17.59
-20.78
-24.27
-27.89
-31.38
-34.35
-36.37
-37.04
-36.11
-33.60
-29.75
-25.02
-19.94
-15.06
-10.78
-7.38
-5.01
-3.72
-3.55
-4.54
-6.67
-9.82
-13.74
-18.04
-22.34
-26.36
-29.98
-33.17
-35.90
-38.08
-39.53
-40.05
-39.58
-38.21
-36.21
-33.93
-31.73
-29.89
-28.55
-27.73
-27.38
-27.36
-27.56
-27.95
-28.52
-29.36
-30.59
-32.39
-34.98
-38.49
-42.86
-47.69
-52.20
-55.36
-56.16
-53.96
-48.70
-40.87
-31.32
-21.00
-10.70
-0.99
7.75
15.24
21.31
25.85
28.91
30.68
31.47
31.62
31.45
31.20
30.99
30.90
30.98
31.24
31.68
32.20
32.69
32.96
32.90
32.44
31.62
30.51
29.12
27.41
25.20
22.32
18.71
14.48
9.90
5.27
0.81
-3.49
-7.77
-12.30
-17.34
-23.03
-29.33
-35.97
-42.44
-47.97
-51.67
-52.67
-50.45
-45.01
-36.93
-27.25
-17.11
-7.52
0.87
7.75
13.08
16.94
19.46
20.73
20.91
20.23
19.04
17.75
16.76
16.34
16.59
17.41
18.58
19.89
21.19
22.43
23.63
24.76
25.75
26.50
26.87
26.76
26.14
25.00
23.44
21.62
19.74
18.04
16.68
15.72
15.06
14.50
13.74
12.52
10.66
8.05
4.72
0.84
-3.31
-7.23
-10.34
-11.96
-11.56
-8.86
-4.00
2.45
9.66
16.76
23.07
28.21
32.15
34.99
36.85
37.75
37.61
36.37
34.13
31.17
27.92
24.91
22.57
21.17
20.76
21.17
22.15
23.40
24.68
25.82
26.72
27.31
27.59
27.59
27.47
27.43
27.68
28.32
29.28
30.35
31.19
31.50
31.06
29.77
27.59
24.49
20.42
15.37
9.43
2.82
-4.05
-10.57
-15.99
-19.54
-20.52
-18.56
-13.73
-6.63
1.77
10.30
17.95
23.97
27.99
29.90
29.79
27.85
24.39
19.81
14.54
9.04
3.65
-1.41
-6.06
-10.25
-13.95
-17.05
-19.43
-20.94
-21.55
-21.29
-20.30
-18.79
-17.00
-15.20
-13.57
-12.20
-11.05
-10.00
-8.94
-7.84
-6.88
-6.32
-6.52
-7.68
-9.80
-12.55
-15.33
-17.38
-17.95
-16.51
-12.89
-7.34
-0.38
7.21
14.67
21.28
26.51
30.03
31.73
31.74
30.38
28.07
25.29
22.43
19.77
17.40
15.33
13.51
11.93
10.59
9.54
8.81
8.41
8.23
8.12
7.82
7.08
5.71
3.66
1.00
-2.11
-5.50
-9.10
-12.99
-17.37
-22.49
-28.52
-35.43
-42.85
-50.09
-56.18
-60.05
-60.80
-57.94
-51.55
-42.30
-31.29
-19.79
-8.96
0.38
7.73
12.92
15.96
16.96
16.15
13.90
10.64
6.93
3.22
-0.11
-2.86
-4.98
-6.57
-7.79
-8.87
-10.03
-11.44
-13.18
-15.23
-17.49
-19.81
-22.06
-24.17
-26.10
-27.93
-29.79
-31.94
-34.66
-38.16
-42.34
-46.70
-50.35
-52.23
-51.45
-47.60
-40.85
-31.98
-22.04
-12.08
-2.93
4.96
11.41
16.40
19.96
22.12
22.85
22.18
20.25
17.30
13.73
9.96
6.37
3.19
0.45
-1.99
-4.32
-6.75
-9.33
-12.01
-14.64
-17.04
-19.16
-21.14
-23.28
-25.97
-29.55
-34.14
-39.52
-45.08
-49.89
-52.86
-53.06
-49.95
-43.57
-34.50
-23.74
-12.41
-1.45
8.53
17.18
24.35
29.90
33.66
35.50
35.44
33.74
30.87
27.44
23.98
20.81
18.00
15.38
12.69
9.76
6.58
3.33
0.27
-2.39
-4.60
-6.55
-8.56
-11.04
-14.34
-18.69
-24.15
-30.50
-37.18
-43.32
-47.74
-49.27
-47.08
-40.92
-31.28
-19.26
-6.20
6.60
18.19
28.06
35.99
42.01
46.22
48.76
49.73
49.33
47.75
45.30
42.32
39.13
36.01
33.09
30.45
28.07
25.91
23.97
22.21
20.50
18.70
16.65
14.27
11.67
9.08
6.74
4.84
3.35
2.10
0.81
-0.76
-2.68
-4.93
-7.35
-9.78
-12.17
-14.57
-17.23
-20.49
-24.73
-30.23
-36.92
-44.25
-51.14
-56.17
-57.96
-55.53
-48.69
-38.10
-25.01
-10.89
2.95
15.65
26.75
36.11
43.70
49.46
53.34
55.35
55.68
54.65
52.71
50.29
47.71
45.20
42.87
40.82
39.14
37.88
37.06
36.56
36.23
35.85
35.19
34.06
32.34
29.93
26.85
23.19
19.16
15.06
11.16
7.63
4.45
1.36
-2.03
-6.06
-10.80
-15.99
-21.03
-25.27
-28.29
-30.27
-31.97
-34.56
-39.06
-45.69
-53.49
-60.31
-63.38
-60.31
-50.00
-33.20
-12.31
9.45
29.17
45.21
57.55
67.51
76.88
87.13
98.75
111.20
122.96
131.82
135.20
130.65
116.76
94.26
66.62
39.67
19.77
11.34
14.86
26.53
39.96
49.00
50.25
43.96
33.02
20.91
9.93
0.63
-7.57
-15.17
-21.94
-27.11
-30.05
-30.96
-30.93
-31.36
-33.22
-36.54
-40.34
-42.96
-42.89
-39.33
-32.47
-23.45
-13.94
-5.66
0.20
3.36
4.69
5.68
7.94
12.53
19.42
27.44
34.62
38.80
38.69
34.57
28.27
22.49
19.82
21.52
26.86
33.19
36.86
34.92
26.93
14.76
1.63
-9.00
-14.96
-15.95
-13.16
-8.79
-4.63
-0.71
2.99
5.71
6.28
3.74
-1.74
-8.35
-14.17
-17.78
-18.36
-18.07
-21.37
-31.98
-50.91
-76.05
-103.30
-129.68
-153.74
-173.86
-189.99
-203.07
-213.08
-219.29
-221.07
-212.07
-189.46
-164.64
-143.90
-125.93
-110.00
-95.11
-80.49
-65.77
-50.89
-37.00
-25.00
-13.52
-1.67
10.23
21.84
32.91
43.27
52.70
60.06
64.25
66.05
66.38
65.79
65.25
65.66
67.38
70.03
72.11
72.00
69.48
64.86
58.73
52.24
46.57
42.43
39.88
38.29
36.91
35.71
34.73
33.74
32.29
29.85
26.14
21.48
16.89
13.91
14.17
18.67
27.43
39.55
53.31
66.35
76.04
80.10
77.33
68.07
54.04
37.72
21.37
6.49
-6.19
-16.28
-23.33
-27.00
-27.52
-26.27
-25.72
-28.71
-37.32
-51.95
-71.15
-92.23
-112.28
-129.03
-141.19
-148.51
-151.49
-151.12
-148.49
-144.53
-139.86
-134.68
-128.82
-121.77
-112.84
-101.32
-86.67
-68.66
-47.40
-23.55
1.56
26.16
48.39
67.05
82.02
94.39
105.87
118.07
131.23
143.77
152.77
155.35
150.14
138.09
122.06
105.84
93.07
85.93
84.57
87.45
91.88
94.96
