1659809224.00
64.000000
-0.00
-0.00
-0.00
-0.00
-0.00
-0.00
-0.00
-0.00
-0.00
-0.00
0.00
0.01
0.01
-0.00
-0.03
-0.05
-0.05
0.00
0.13
0.36
0.66
1.01
1.37
1.72
2.06
2.40
2.79
3.24
3.80
4.42
5.06
5.66
6.20
6.68
7.15
7.68
8.31
9.14
10.09
11.04
11.88
12.56
13.14
13.76
14.65
15.96
17.91
20.32
22.90
25.38
27.58
29.57
31.68
34.32
37.81
42.54
48.15
54.10
59.83
64.97
69.58
74.14
79.34
85.71
93.76
103.00
112.62
121.73
129.77
136.75
143.30
150.75
157.77
166.64
177.95
191.79
206.97
220.57
228.25
225.36
208.53
176.87
132.76
80.05
23.07
-34.94
-92.44
-149.16
-205.23
-260.37
-313.74
-363.87
-409.83
-450.91
-486.50
-515.74
-537.23
-549.22
-549.96
-538.37
-514.21
-478.67
-433.88
-382.45
-327.02
-269.84
-212.63
-156.66
-102.95
-52.37
-5.90
35.58
71.42
101.35
125.50
144.38
158.71
169.18
176.40
180.76
182.54
181.96
179.34
175.03
169.48
163.09
156.17
148.91
141.39
133.65
125.73
117.75
109.87
102.26
95.03
88.18
81.62
75.22
68.88
62.59
56.48
50.73
45.55
41.01
37.05
33.39
29.74
25.85
21.71
17.59
13.95
11.24
9.64
8.93
8.47
7.48
5.44
2.32
-1.24
-4.20
-5.55
-4.89
-2.67
-0.17
1.03
-0.22
-3.99
-9.14
-13.67
-15.65
-14.15
-9.70
-4.33
-0.66
-0.82
-5.48
-13.53
-22.31
-28.45
-28.98
-22.55
-10.23
4.44
16.51
21.28
16.13
1.88
-16.97
-33.22
-39.29
-30.05
-5.34
29.21
63.82
88.05
94.83
83.24
58.45
28.95
2.95
-14.66
-23.30
-25.40
-24.26
-22.64
-22.19
-23.23
-24.69
-24.08
-18.58
-6.93
9.06
24.55
33.98
34.25
26.92
17.41
11.65
12.36
17.41
21.64
20.58
13.76
4.88
-0.65
0.65
7.95
16.83
22.09
20.87
13.98
5.30
-0.50
-0.54
4.95
12.76
18.49
18.68
12.47
1.93
-8.93
-16.33
-18.54
-16.45
-13.09
-11.89
-14.76
-21.65
-30.94
-40.51
-48.82
-54.78
-56.90
-52.96
-41.05
-21.66
1.01
20.13
29.43
26.98
16.96
7.73
7.36
19.30
40.69
64.70
85.09
99.87
111.44
123.34
136.23
146.14
146.18
130.86
100.10
60.16
21.08
-7.76
-21.35
-20.14
-8.68
7.40
23.88
38.94
52.69
65.87
78.77
90.56
100.01
106.13
108.62
108.03
105.86
104.14
104.87
109.39
117.31
127.05
136.29
142.83
145.25
143.26
137.23
127.43
117.06
106.91
96.35
83.78
67.32
45.61
18.55
-12.57
-45.41
-77.46
-107.48
-135.48
-162.76
-191.25
-222.97
-259.41
-301.29
-348.17
-397.68
-445.43
-484.69
-507.76
-508.50
-484.81
-439.75
-380.45
-315.25
-250.31
-188.12
-127.80
-67.59
-7.57
49.03
96.90
131.30
150.73
158.25
160.16
163.45
172.70
188.08
205.56
219.09
223.57
217.13
201.87
182.74
165.40
154.25
151.01
154.68
162.19
169.48
172.45
167.93
154.21
131.27
100.73
65.13
27.10
-11.20
-48.55
-84.79
-120.60
-156.78
-193.17
-227.52
-255.25
-270.35
-267.50
-244.35
-203.10
-150.28
-94.81
-45.44
-8.49
12.88
18.25
8.89
-13.11
-45.00
-83.20
-123.22
-160.02
-188.77
-205.68
-208.51
-196.85
-172.34
-138.38
-99.85
-62.29
-30.91
-9.42
0.92
1.52
-4.14
-11.69
-17.35
-18.96
-16.24
-10.49
-3.78
1.69
4.05
2.15
-4.08
-13.32
-22.81
-28.96
-28.39
-19.21
-1.86
20.83
44.64
65.27
79.61
86.47
86.51
81.69
74.53
67.34
61.81
58.71
57.84
58.23
58.57
57.73
55.06
50.72
45.52
40.61
37.12
35.49
35.52
36.51
37.67
37.89
36.25
32.35
26.74
20.92
16.76
16.12
20.22
29.21
41.45
54.07
63.96
69.02
68.87
64.40
57.89
52.37
51.58
57.76
71.51
91.68
115.97
141.26
162.82
176.77
181.56
180.38
176.53
173.49
173.92
180.24
194.04
212.60
232.21
249.69
266.68
281.08
289.59
289.08
280.47
267.91
251.38
229.39
199.52
165.52
125.43
76.61
17.16
-50.09
-120.56
-197.27
-285.09
-386.53
-490.95
-592.01
-685.30
-770.59
-847.82
-879.56
-842.99
-742.27
-656.09
-608.79
-603.88
-616.54
-631.82
-635.72
-617.26
-577.25
-522.45
-461.07
-389.56
-309.80
-224.51
-137.42
-48.72
41.57
126.84
199.59
255.78
305.49
355.57
410.20
469.19
532.23
598.30
662.43
719.46
765.47
804.21
833.38
846.40
835.16
796.38
733.14
652.29
563.41
455.63
335.16
215.62
111.54
31.33
-23.07
-54.83
-71.34
-82.58
-97.99
-123.06
-160.36
-208.19
-259.88
-304.56
-330.70
-330.24
-301.82
-246.89
-174.27
-98.84
-36.87
0.14
9.48
-2.71
-24.92
-45.29
-55.30
-50.85
-32.72
-5.44
24.65
50.60
65.48
63.37
41.22
0.98
-49.74
-99.94
-139.72
-164.70
-178.45
-191.04
-214.17
-255.03
-311.96
-374.57
-427.82
-458.29
-459.18
-432.05
-384.74
-326.92
-266.21
-206.53
-148.91
-93.29
-40.18
8.97
52.91
91.92
128.40
165.51
205.12
246.00
283.87
313.14
329.62
332.55
324.62
310.04
291.80
269.92
241.80
204.45
157.21
103.27
49.23
3.02
-28.60
-41.70
-35.63
-12.65
22.88
64.94
106.66
140.97
162.00
166.57
155.29
132.74
106.01
82.64
68.19
64.75
70.87
82.70
95.48
104.81
107.38
101.44
87.22
67.21
45.77
27.98
18.01
17.75
26.46
41.81
61.27
83.25
107.01
132.05
157.48
182.25
205.63
227.66
248.69
268.36
284.84
295.18
296.79
289.13
274.09
255.64
237.98
223.83
213.14
203.62
191.97
175.45
152.61
123.19
88.26
50.12
11.98
-22.73
-51.16
-72.12
-86.74
-98.49
-112.62
-133.33
-161.53
-193.84
-224.12
-246.04
-256.08
-255.04
-248.17
-244.60
-251.82
-272.77
-305.03
-342.90
-379.60
-408.73
-424.83
-424.26
-408.76
-380.60
-341.19
-291.73
-235.52
-179.26
-131.71
-100.21
-89.22
-103.62
-140.83
-190.66
-239.50
-277.25
-301.68
-317.31
-330.55
-347.96
-380.15
-431.08
-495.74
-562.31
-618.60
-657.55
-677.94
-682.10
-627.37
-496.43
-305.84
-98.64
85.86
230.10
333.65
396.10
431.51
447.92
442.53
414.21
367.49
311.32
256.80
210.26
173.91
149.07
134.66
124.61
115.82
109.65
110.10
119.56
136.11
155.09
172.52
183.90
182.00
164.07
133.88
99.15
67.35
42.54
25.18
13.61
4.22
-7.46
-24.14
-44.50
-64.47
-78.91
-83.63
-76.22
-56.17
-25.93
9.21
39.12
54.07
47.38
18.83
-23.88
-66.88
-95.06
-98.33
-75.43
-33.80
14.93
59.89
95.01
119.62
136.28
147.49
153.88
154.61
149.13
139.21
128.80
122.79
124.94
136.62
156.83
182.95
212.04
241.34
268.43
290.74
305.62
310.97
306.19
292.53
272.70
249.79
226.05
202.46
178.82
154.54
129.45
104.08
79.32
55.95
34.26
14.10
-4.67
-21.81
-36.67
-48.27
-55.82
-59.22
-59.15
-56.82
-53.42
-49.67
-45.60
-40.96
-35.54
-29.61
-23.74
-18.45
-13.88
-9.69
-5.49
-1.24
2.52
4.99
5.75
5.17
4.42
4.89
7.37
11.57
16.26
19.80
20.79
18.40
11.96
0.95
-15.06
-35.75
-59.57
-83.76
-105.41
-122.80
-136.23
-147.39
-157.46
-165.13
-166.01
-154.15
-125.08
-78.63
-19.78
42.97
100.88
148.04
182.65
206.14
221.37
230.90
236.38
238.65
238.20
235.21
229.36
219.70
204.89
184.01
156.90
124.44
88.14
49.74
10.91
-26.61
-60.89
-89.93
-112.35
-128.29
-139.95
-151.45
-167.74
-192.76
-227.44
-268.43
-308.47
-338.25
-349.55
-338.10
-304.86
-255.72
-199.70
-146.97
-106.83
-85.86
-86.10
-103.71
-128.95
-148.07
-147.55
-118.84
-61.73
15.67
100.19
178.51
241.00
283.01
303.67
304.21
287.17
256.84
219.87
184.34
157.31
141.83
134.97
128.96
114.52
85.59
42.68
-7.16
-53.47
-87.14
-104.01
-105.77
-97.72
-85.42
-72.23
-59.12
-46.20
-34.35
-25.45
-21.19
-21.41
-23.51
-23.70
-19.43
-11.32
-2.97
1.03
-1.97
-11.03
-21.87
-29.05
-28.90
-21.49
-10.84
-3.51
-6.12
-22.88
-54.44
-98.21
-149.87
-204.92
-259.56
-310.52
-354.44
-387.29
-404.87
-403.72
-382.02
-340.33
-281.62
-211.41
-137.42
-69.01
-15.78
14.69
18.69
-2.10
-40.61
-85.54
-123.60
-142.82
-136.29
-105.18
-59.31
-13.95
16.36
24.33
13.24
-4.76
-14.96
-7.35
19.17
58.00
99.80
138.08
171.83
204.19
238.98
277.86
320.01
363.48
406.90
449.48
489.72
523.82
545.54
548.00
526.42
480.51
414.89
337.44
256.65
179.28
109.33
48.44
-3.23
-46.20
-81.56
-110.95
-136.69
-161.23
-186.47
-213.43
-242.62
-274.59
-310.29
-350.45
-394.42
-439.32
-480.12
-511.07
-527.90
-529.51
-518.28
-498.67
-475.10
-450.36
-425.64
-401.48
-379.12
-360.43
-346.95
-338.37
-331.65
-321.78
-303.96
-275.86
-238.62
-196.11
-152.83
-112.00
-74.55
-39.08
-2.89
36.42
79.44
124.15
166.06
199.88
221.21
228.19
222.93
210.82
198.50
191.45
192.85
203.54
223.48
251.77
286.23
323.20
356.71
379.60
385.71
372.78
339.63
291.67
240.23
196.76
167.25
149.92
138.94
127.97
113.57
94.73
72.00
46.47
19.29
-7.67
-32.24
-53.68
-72.61
-90.21
-104.12
-113.74
-120.24
-130.12
-140.38
-144.83
-134.95
-107.59
-65.06
-14.72
33.15
66.85
76.11
60.55
29.20
-6.14
-37.86
-63.88
-85.71
-105.56
-124.05
-139.39
-147.86
-146.81
-136.64
-120.76
-103.52
-88.70
-78.17
-70.85
-62.24
-48.78
-27.18
3.07
40.41
82.31
126.35
170.35
211.85
248.07
276.56
296.45
309.18
319.49
332.55
350.65
370.41
383.01
377.74
346.76
289.23
212.39
130.96
60.67
12.65
-9.96
-11.57
-0.60
14.77
29.85
43.73
58.98
76.43
93.23
104.18
105.45
97.85
86.56
78.22
65.76
43.57
9.27
-34.02
-79.56
-119.94
-149.52
-165.99
-170.60
-167.40
-160.03
-152.31
-147.66
-148.39
-153.92
-160.74
-163.66
-157.60
-140.04
-111.25
-75.94
-41.59
-17.32
-8.23
-13.30
-27.28
-44.33
-60.69
-74.37
-85.21
-93.53
-99.26
-101.56
-99.95
-94.81
-87.85
-81.23
-76.23
-72.90
-70.33
-67.12
-61.79
-53.86
-43.74
-33.17
-24.36
-18.90
-17.25
-18.67
-21.58
-24.14
-25.16
-24.00
-21.24
-17.93
-15.00
-12.49
-9.37
-3.63
7.69
23.79
45.28
72.37
104.30
138.70
171.49
197.33
211.17
210.04
194.26
168.02
137.20
107.33
81.86
61.67
45.93
33.53
24.12
18.15
16.63
19.62
25.94
33.57
40.65
46.18
50.31
54.05
58.50
64.46
71.90
80.23
88.59
96.13
102.10
105.70
105.88
101.46
91.75
77.20
59.87
43.17
30.89
25.75
28.31
36.81
47.94
58.24
65.07
67.03
63.69
55.04
41.19
22.53
0.08
-24.33
-48.31
-69.53
-86.39
-98.31
-105.60
-109.22
-110.43
-110.38
-109.83
-108.87
-106.92
-102.93
-95.94
-85.54
-72.21
-57.07
-41.26
-25.48
-9.84
5.74
20.79
33.99
43.34
46.97
43.94
34.81
21.31
5.62
-10.40
-25.60
-39.50
-51.90
-62.75
-72.14
-80.50
-88.63
-97.49
-107.68
-119.11
-130.99
-142.17
-151.61
-158.62
-162.86
-164.05
-161.87
-155.99
-146.30
-133.06
-116.87
-98.40
-78.30
-57.17
-35.86
-15.56
2.31
16.58
26.88
33.93
39.30
44.75
51.44
59.55
68.46
77.13
84.72
90.79
95.19
97.81
98.39
96.58
92.18
85.22
75.90
64.18
49.54
31.11
8.39
-17.98
-45.76
-71.50
-91.62
-103.76
-107.59
-104.76
-98.06
-90.18
-82.80
-76.31
-70.10
-63.10
-54.38
-43.50
-30.48
-15.85
-0.23
16.05
33.16
51.68
71.90
93.39
114.79
133.98
148.85
157.92
160.83
158.38
152.14
144.05
135.95
129.36
125.25
124.16
126.02
130.10
135.01
138.96
140.33
138.74
135.83
135.35
141.90
158.57
184.54
214.19
238.69
249.39
241.38
215.40
176.87
132.95
89.03
46.78
4.36
-41.64
-93.63
-151.04
-209.73
-262.90
-303.13
-324.79
-326.00
-309.36
-281.07
-248.88
-219.67
-197.72
-183.96
-176.48
-171.77
-165.87
-155.31
-137.44
-110.65
-74.41
-29.41
22.40
77.85
132.73
182.10
221.04
245.54
253.38
244.63
221.48
187.40
146.20
101.10
54.54
8.22
-36.65
-79.03
-117.94
-152.35
-181.36
-204.32
-220.95
-231.47
-236.55
-237.13
-233.96
-227.39
-217.26
-203.23
-185.21
-163.81
-140.41
-116.78
-94.47
-74.27
-56.07
-39.23
-23.08
-7.37
7.56
20.99
32.19
40.76
46.81
50.85
53.60
55.67
57.42
58.84
59.67
59.59
58.48
56.46
53.81
50.86
47.77
44.52
41.05
37.37
33.66
30.17
27.07
24.31
21.57
18.45
14.61
9.97
4.65
-1.13
-7.13
-13.20
-19.22
-24.99
-30.20
-34.44
-37.30
-38.52
-38.05
-36.03
-32.74
-28.41
-23.23
-17.33
-10.81
-3.82
3.34
10.32
16.72
22.15
26.39
29.33
31.05
31.77
31.84
31.55
31.13
30.61
29.93
29.00
27.83
26.46
25.05
23.68
22.33
20.91
19.27
17.32
15.04
12.50
9.83
7.10
4.37
1.62
-1.17
-4.00
-6.87
-9.71
-12.48
-15.27
-18.25
-21.71
-25.83
-30.61
-35.68
-40.37
-43.92
-45.74
-45.58
-43.58
-40.11
-35.62
-30.44
-24.77
-18.69
-12.24
-5.57
1.14
7.62
13.59
18.80
23.11
26.43
28.82
30.39
31.32
31.77
31.92
31.86
31.66
31.39
31.03
30.56
29.89
28.94
27.61
25.84
23.60
21.00
18.16
15.26
12.48
9.93
7.61
5.42
3.24
0.93
-1.52
-4.08
-6.70
-9.37
-12.19
-15.34
-18.99
-23.22
-27.95
-32.93
-37.77
-42.02
-45.22
-47.02
-47.18
-45.67
-42.61
-38.29
-33.04
-27.16
-20.89
-14.41
-7.84
-1.29
5.11
11.29
17.13
22.53
27.37
31.49
34.72
36.93
38.08
38.24
37.54
36.26
34.66
33.06
31.68
30.67
29.96
29.38
28.66
27.52
25.79
23.46
20.63
17.54
14.42
11.47
8.80
6.42
4.22
2.03
-0.37
-3.07
-6.07
-9.25
-12.46
-15.59
-18.67
-21.81
-25.15
-28.75
-32.59
-36.54
-40.36
-43.76
-46.31
-47.49
-46.90
-44.34
-39.95
-34.21
-27.76
-21.16
-14.78
-8.71
-2.98
2.40
7.31
11.58
15.15
18.05
20.43
22.47
24.26
25.82
27.06
27.87
28.16
27.95
27.35
26.57
25.87
25.46
25.38
25.44
25.31
24.69
23.43
21.64
19.60
17.56
15.59
13.55
11.21
8.40
5.17
1.75
-1.56
-4.56
-7.26
-9.83
-12.53
-15.59
-19.19
-23.33
-27.90
-32.59
-36.87
-40.14
-41.81
-41.49
-39.10
-34.91
-29.45
-23.35
-17.16
-11.23
-5.69
-0.42
4.74
9.95
15.19
20.30
24.95
28.81
31.61
33.25
33.86
33.69
33.10
32.40
31.83
31.47
31.25
30.99
30.53
29.76
28.63
27.19
25.49
23.49
21.18
18.58
15.77
12.99
10.46
8.33
6.57
5.02
3.44
1.65
-0.38
-2.57
-4.86
-7.27
-9.97
-13.16
-16.96
-21.23
-25.59
-29.39
-32.00
-32.97
-32.18
-29.82
-26.32
-22.11
-17.51
-12.68
-7.67
-2.53
2.65
7.65
12.25
16.25
19.54
22.10
23.94
25.13
25.73
25.89
25.76
25.52
25.29
25.15
25.05
24.87
24.49
23.79
22.76
21.50
20.09
18.62
17.15
15.61
13.91
11.94
9.59
6.84
3.71
0.30
-3.21
-6.65
-9.82
-12.60
-14.98
-17.10
-19.20
-21.62
-24.57
-28.09
-31.95
-35.64
-38.55
-40.08
-39.88
-37.89
-34.32
-29.66
-24.41
-19.05
-13.89
-9.07
-4.58
-0.31
3.84
7.90
11.80
15.39
18.43
20.79
22.38
23.25
23.48
23.21
22.62
21.87
21.14
20.59
20.29
20.20
20.14
19.88
19.22
18.13
16.70
15.14
13.64
12.30
11.12
9.96
8.63
6.91
4.65
1.80
-1.49
-4.97
-8.32
-11.31
-13.83
-16.02
-18.21
-20.76
-23.93
-27.73
-31.87
-35.79
-38.84
-40.41
-40.13
-37.88
-33.88
-28.54
-22.38
-15.93
-9.62
-3.77
1.45
6.04
10.11
13.86
17.43
20.84
23.96
26.49
28.17
28.85
28.59
27.69
26.53
25.44
24.59
23.96
23.37
22.69
21.84
20.82
19.68
18.37
16.76
14.75
12.35
9.72
7.16
4.91
3.08
1.52
-0.02
-1.79
-3.93
-6.40
-9.10
-11.92
-14.89
-18.08
-21.62
-25.52
-29.70
-33.91
-37.82
-41.07
-43.35
-44.39
-44.00
-42.13
-38.84
-34.28
-28.72
-22.45
-15.74
-8.81
-1.92
4.65
10.61
15.71
19.82
23.02
25.49
27.48
29.13
30.44
31.28
31.56
31.30
30.66
29.91
29.22
28.63
27.98
27.06
25.70
23.89
21.78
19.57
17.45
15.47
13.55
11.55
9.32
6.80
3.96
0.86
-2.47
-5.96
-9.52
-13.01
-16.23
-19.09
-21.57
-23.93
-26.51
-29.69
-33.64
-38.18
-42.78
-46.68
-49.16
-49.72
-48.29
-45.14
-40.77
-35.71
-30.34
-24.84
-19.25
-13.59
-7.89
-2.31
2.93
7.60
11.56
14.76
17.24
19.10
20.41
21.18
21.45
21.28
20.82
20.27
19.85
19.65
19.68
19.82
19.89
19.69
19.11
18.11
16.72
15.09
13.38
11.75
10.32
9.07
7.85
6.42
4.54
2.13
-0.72
-3.71
-6.51
-8.83
-10.60
-11.97
-13.29
-14.94
-17.21
-20.22
-23.88
-27.93
-31.95
-35.46
-37.94
-38.96
-38.23
-35.68
-31.51
-26.11
-20.03
-13.80
-7.88
-2.50
2.27
6.51
10.29
13.68
16.64
19.10
21.04
22.51
23.63
24.51
25.16
25.50
25.41
24.79
23.74
22.48
21.26
20.23
19.37
18.53
17.59
16.51
15.40
14.40
13.59
12.89
12.12
11.06
9.56
7.61
5.30
2.81
0.36
-1.89
-3.82
-5.44
-6.83
-8.21
-9.82
-11.88
-14.54
-17.79
-21.53
-25.48
-29.27
-32.46
-34.56
-35.22
-34.23
-31.68
-27.93
-23.47
-18.77
-14.13
-9.63
-5.16
-0.61
4.02
8.54
12.59
15.80
17.96
19.04
19.28
18.99
18.46
17.89
17.36
16.90
16.56
16.39
16.45
16.66
16.85
16.76
16.16
15.01
13.40
11.56
9.71
7.97
6.37
4.86
3.39
1.96
0.57
-0.83
-2.34
-4.07
-6.12
-8.51
-11.21
-14.13
-17.21
-20.47
-23.93
-27.63
-31.56
-35.59
-39.40
-42.55
-44.52
-44.86
-43.37
-40.17
-35.69
-30.52
-25.16
-19.89
-14.74
-9.57
-4.30
1.00
6.09
10.62
14.31
17.05
18.90
20.06
20.71
21.03
21.08
20.93
20.63
20.22
19.79
19.37
18.91
18.36
17.62
16.63
15.34
13.71
11.78
9.56
7.09
4.43
1.59
-1.37
-4.48
-7.71
-11.11
-14.70
-18.51
-22.57
-26.85
-31.20
-35.28
-38.61
-40.69
-41.14
-39.87
-37.09
-33.15
-28.43
-23.27
-17.85
-12.32
-6.76
-1.33
3.83
8.55
12.72
16.27
19.18
21.47
23.24
24.54
25.46
26.00
26.11
25.77
25.00
23.93
22.70
21.48
20.33
19.21
18.01
16.57
14.79
12.66
10.23
7.61
4.92
2.27
-0.33
-2.92
-5.71
-8.96
-12.91
-17.65
-22.99
-28.41
-33.16
-36.41
-37.53
-36.29
-32.93
-28.04
-22.37
-16.58
-11.04
-5.86
-0.90
3.99
8.90
13.76
18.34
22.36
25.55
27.69
28.70
28.60
27.54
25.80
23.68
21.49
19.46
17.80
16.62
15.90
15.47
14.99
14.04
12.28
9.57
6.07
2.17
-1.64
-4.98
-7.68
-9.85
-11.82
-14.03
-16.95
-20.87
-25.85
-31.61
-37.51
-42.65
-46.19
-47.50
-46.40
-43.09
-38.08
-32.00
-25.37
-18.57
-11.82
-5.21
1.23
7.51
13.59
19.37
24.65
29.20
32.76
35.19
36.45
36.63
35.94
34.65
33.08
31.59
30.42
29.64
29.05
28.25
26.78
24.29
20.72
16.34
11.63
7.07
2.91
-0.84
-4.41
-8.11
-12.15
-16.51
-20.95
-25.14
-28.88
-32.15
-35.25
-38.68
-42.81
-47.65
-52.58
-56.50
-58.11
-56.34
-50.80
-41.83
-30.30
-17.08
-2.46
14.09
33.82
58.12
87.77
122.40
160.41
198.99
234.60
263.41
281.81
287.18
278.74
258.33
230.46
201.40
177.30
162.24
156.91
158.75
163.48
167.28
168.48
167.99
168.32
171.93
179.82
191.20
204.24
217.28
229.67
241.62
253.20
263.25
269.11
267.50
255.84
233.73
203.29
168.16
132.60
99.35
69.40
42.31
17.19
-6.49
-28.62
-48.57
-65.85
-79.76
-90.13
-96.99
-100.46
-100.73
-98.32
-94.14
-89.60
-86.92
-86.99
-90.77
-98.54
-109.92
-124.19
-140.77
-159.48
-180.70
-206.99
-238.17
-275.56
-319.38
-367.40
-414.50
-453.60
-478.01
-483.89
-474.64
-450.45
-416.42
-377.08
-335.86
-295.82
-260.99
-236.56
-227.35
-240.66
-269.52
-309.48
-355.18
-402.19
-447.54
-488.63
-521.87
-542.55
-553.04
-544.89
-520.94
-487.14
-450.10
-414.24
-380.65
-347.95
-274.80
-216.24
-169.51
-140.75
-132.83
-142.28
-159.33
-171.57
-169.08
-148.50
-120.36
-85.77
-52.88
-25.83
-4.06
15.64
36.02
57.48
78.27
91.33
101.75
111.12
122.31
137.95
159.01
184.17
210.66
235.61
254.26
270.45
286.09
303.66
324.78
349.35
375.58
400.79
422.70
438.84
451.55
462.54
473.80
486.85
502.37
520.06
538.64
555.89
568.27
573.06
567.36
549.36
518.77
476.46
423.91
362.35
292.62
215.64
133.38
49.83
-28.98
-96.14
-145.82
-175.13
-185.03
-179.75
-165.00
-145.86
-125.40
-104.53
-83.09
-61.15
-39.81
-20.98
-6.20
4.52
13.08
22.48
35.35
52.54
72.66
92.65
109.24
120.38
126.02
127.73
127.73
127.62
127.62
126.69
123.37
116.75
107.17
96.07
85.39
76.60
70.08
64.88
59.10
50.60
37.72
19.75
-3.02
-29.48
-58.10
-87.21
-115.12
-140.25
-161.17
-176.76
-186.46
-190.49
-189.75
-185.63
-179.46
-172.11
-163.79
-154.17
-142.74
-129.22
-113.75
-96.91
-79.50
-62.41
-46.49
-32.51
-21.08
-12.55
-6.61
-2.21
2.48
9.58
20.77
36.60
56.10
77.12
97.12
114.11
127.19
136.42
142.20
144.62
143.26
137.46
126.95
112.31
94.96
76.66
58.92
42.60
27.89
14.62
2.58
-8.19
-17.49
-25.12
-31.02
-35.35
-38.40
-40.36
-41.32
-41.20
-40.00
-38.05
-36.04
-34.89
-35.32
-37.49
-40.80
-43.98
-45.58
-44.62
-41.20
-36.37
-31.76
-28.83
-28.35
-30.24
-33.68
-37.65
-41.35
-44.94
-49.11
-54.67
-61.99
-70.69
-79.77
-87.97
-94.23
-98.19
-101.12
-104.79
-110.59
-118.83
-128.72
-138.74
-147.11
-152.22
-153.03
-150.97
-148.20
-146.61
-146.92
-148.60
-150.43
-150.92
-148.71
-143.01
-136.44
-131.80
-130.51
-131.71
-133.22
-133.39
-132.14
-130.58
-130.04
-134.28
-145.30
-162.44
-182.94
-204.25
-225.77
-248.60
-273.35
-278.46
-248.66
-181.24
-89.95
3.98
83.50
140.83
176.22
195.13
204.91
208.35
205.75
195.95
178.76
154.39
123.16
85.46
43.70
2.91
-32.27
-56.39
-64.64
-54.60
-28.42
8.98
46.04
70.59
75.16
58.47
27.00
-7.70
-33.34
-41.41
-29.49
-1.03
38.36
83.40
129.90
175.78
220.61
264.46
306.81
346.05
379.22
403.93
418.79
422.82
415.49
396.71
367.59
331.24
292.73
257.30
229.77
212.51
204.50
201.98
200.31
195.72
186.32
171.53
150.03
120.64
82.42
34.95
-21.33
-84.97
-153.57
-223.38
-289.15
-344.82
-382.75
-396.35
-383.42
-348.17
-300.33
-251.91
-212.83
-180.40
-151.09
-119.50
-82.23
-40.32
1.29
37.73
66.86
89.95
108.67
123.09
132.67
136.38
133.47
124.00
109.85
94.05
79.85
67.21
53.14
33.81
5.04
-32.12
-76.92
-127.64
-181.87
-224.59
-245.25
-241.82
-220.82
-192.30
-164.16
-140.62
-122.02
-106.44
-91.27
-76.42
-63.12
-52.75
-46.03
-42.78
-42.51
-43.99
-45.41
-44.87
-42.59
-39.76
-37.73
-37.28
-38.57
-41.77
-47.07
-54.45
-63.28
-72.40
-78.92
-78.53
-67.28
-43.92
-11.56
23.27
53.24
73.22
81.57
80.40
73.72
65.24
56.89
48.72
40.18
31.30
22.94
16.13
11.32
8.03
5.14
1.52
-3.47
-9.52
-15.53
-20.06
-21.94
-20.60
-16.27
-9.92
-2.21
6.19
14.86
23.55
32.14
40.42
48.15
55.04
60.91
65.72
69.40
71.86
72.97
72.52
70.43
66.89
62.46
58.07
54.90
53.88
55.39
58.86
62.73
64.49
61.44
51.46
34.11
11.31
-12.88
-33.39
-46.24
-50.19
-47.53
-42.82
-40.66
-43.34
-49.92
-57.15
-61.37
-60.55
-54.76
-46.01
-37.06
-30.32
-27.39
-28.79
-33.90
-40.60
-45.71
-45.73
-38.65
-25.04
-7.80
9.42
23.81
34.20
41.09
44.15
44.36
43.62
44.18
47.39
52.30
55.24
51.21
36.99
14.11
-10.20
-25.83
-24.24
-2.44
36.02
83.66
133.04
179.69
222.09
259.71
290.59
311.10
318.14
311.99
297.84
284.30
279.69
287.77
305.86
325.74
337.41
333.56
312.35
277.38
235.15
191.89
151.20
113.88
79.08
46.10
15.50
-11.07
-32.05
-47.29
-58.64
-69.53
-83.64
-103.30
-128.62
-157.54
-186.92
-214.10
-238.09
-260.13
-283.36
-311.80
-349.16
-397.24
-454.55
-515.61
-571.43
-611.50
-626.79
-612.78
-571.30
-510.31
-441.69
-377.70
-327.50
-294.90
-277.91
-270.17
-263.53
-250.84
-228.10
-195.29
-155.68
-114.19
-75.43
-42.34
-15.91
4.09
18.08
26.17
28.19
24.17
14.73
1.22
-14.76
-32.00
-49.95
-68.33
-86.41
-102.17
-112.23
-112.69
-100.71
-76.07
-41.53
-1.97
37.65
74.21
107.38
139.25
172.88
210.69
253.53
300.68
350.88
403.25
457.82
515.03
574.38
633.24
686.34
727.04
749.44
750.88
732.83
700.04
658.08
610.74
558.91
501.72
438.69
371.66
304.87
243.11
189.26
142.85
100.64
58.75
15.04
-29.83
-73.03
-111.24
-142.62
-167.55
-188.25
-207.70
-228.60
-252.78
-280.93
-312.64
-346.40
-379.67
-409.27
-432.04
-445.59
-448.84
-442.14
-426.97
-405.33
-379.27
-350.78
-321.75
-293.98
-269.16
-248.58
-232.90
-221.96
-214.89
-210.18
-206.10
-200.99
-193.53
-183.03
-169.25
-152.19
-131.88
-108.25
-81.40
-52.10
-22.12
5.86
28.80
44.25
51.17
50.25
43.70
34.46
25.40
18.57
15.02
14.89
17.74
22.94
29.85
37.84
46.17
53.98
60.33
64.52
66.29
65.96
64.34
62.28
60.36
58.68
56.94
54.78
52.05
48.91
45.76
42.93
40.52
38.28
35.78
32.60
28.54
23.67
18.38
13.25
8.90
5.91
4.69
5.36
7.77
11.50
15.97
20.62
25.03
28.97
32.37
35.27
37.71
39.64
40.96
41.59
41.50
40.69
39.20
37.03
34.18
30.71
26.82
22.80
19.03
15.84
13.45
11.98
11.46
11.90
13.23
15.26
17.65
19.88
21.43
21.90
21.13
19.17
16.23
12.54
8.33
3.91
-0.36
-4.08
-6.95
-8.97
-10.40
-11.58
-12.74
-13.72
-14.05
-13.23
-11.05
-7.73
-3.97
-0.54
2.00
3.50
4.17
4.41
4.57
4.89
5.46
6.28
7.28
8.35
9.34
10.13
10.64
10.81
10.59
9.93
8.73
6.96
4.71
2.23
-0.08
-1.86
-2.94
-3.45
-3.67
-3.90
-4.26
-4.63
-4.75
-4.37
-3.41
-2.02
-0.58
0.46
0.69
-0.07
-1.72
-3.89
-6.00
-7.58
-8.47
-9.00
-9.99
-12.37
-16.71
-22.77
-29.38
-34.73
-37.00
-35.06
-28.89
-19.49
-8.42
2.92
13.79
24.35
35.37
47.80
62.29
78.89
97.10
116.03
134.75
152.66
169.78
186.59
203.63
220.83
236.90
249.21
254.38
249.23
231.68
201.75
162.33
119.46
81.57
57.14
51.46
63.90
87.08
109.22
118.74
108.88
79.94
38.20
-8.08
-52.86
-94.44
-134.90
-177.81
-225.94
-280.16
-339.19
-399.95
-457.57
-505.84
-538.46
-550.91
-542.15
-515.07
-475.43
-429.48
-381.96
-335.28
-290.10
-246.59
-205.29
-166.98
-131.81
-98.69
-65.36
-29.39
10.53
53.94
98.84
142.72
183.97
222.45
259.21
295.37
330.92
364.14
391.97
411.17
419.51
416.53
403.34
381.91
354.27
322.10
286.80
249.89
213.35
179.32
149.58
124.80
104.20
86.07
68.74
51.64
35.87
23.61
16.56
14.55
15.00
13.96
8.18
-2.96
-16.99
-29.63
-37.22
-38.78
-36.58
-34.82
-37.42
-46.07
-59.67
-75.24
-89.59
-100.72
-108.34
-113.17
-115.94
-116.66
-114.46
-108.22
-97.38
-82.62
-65.89
-49.80
-36.82
-28.53
-25.22
-26.11
-29.74
-34.59
-39.41
-43.42
-46.22
-47.55
-47.15
-44.62
-39.60
-32.01
-22.33
-11.71
-1.78
5.88
10.37
11.73
10.85
8.98
7.06
5.41
3.71
1.45
-1.58
-5.15
-8.71
-11.77
-14.27
-16.64
-19.62
-23.79
-29.19
-35.20
-40.61
-44.05
-44.45
-41.49
-35.70
-28.33
-20.88
-14.72
-10.74
-9.20
-9.87
-12.17
-15.47
-19.16
-22.78
-26.10
-29.10
-32.02
-35.20
-38.76
-42.48
-45.66
-47.37
-46.91
-44.20
-39.97
-35.52
-32.16
-30.56
-30.47
-30.90
-30.60
-28.78
-25.45
-21.32
-17.41
-14.48
-12.74
-11.93
-11.51
-11.06
-10.39
-9.57
-8.74
-7.91
-6.92
-5.50
-3.41
-0.71
2.20
4.62
5.87
5.59
3.93
1.59
-0.53
-1.62
-1.31
0.20
2.37
4.60
6.48
7.99
9.29
10.60
11.99
13.34
14.39
14.90
14.79
14.13
13.16
12.12
11.20
10.50
9.97
9.55
9.16
8.74
8.27
7.77
7.21
6.58
5.84
4.94
3.86
2.61
1.29
0.09
-0.81
-1.25
-1.16
-0.56
0.48
1.87
3.56
5.48
7.58
9.79
12.02
14.19
16.21
18.00
19.50
20.64
21.33
21.51
21.20
20.44
19.32
17.96
16.48
14.99
13.58
12.26
11.03
9.81
8.57
7.33
6.22
5.41
5.12
5.43
6.27
7.32
8.08
8.05
6.98
4.94
2.39
0.02
-1.53
-1.94
-1.32
-0.13
1.06
1.86
2.24
2.54
3.28
4.89
7.53
11.04
14.97
18.80
22.08
24.50
25.90
26.21
25.36
23.27
19.99
15.69
10.75
5.65
0.91
-3.04
-5.93
-7.68
-8.35
-8.12
-7.26
-6.14
-5.12
-4.52
-4.54
-5.15
-6.06
-6.74
-6.62
-5.18
-2.18
2.29
7.83
13.84
19.68
24.87
29.09
32.22
34.19
34.91
34.27
32.09
28.25
22.72
15.64
7.30
-1.84
-11.25
-20.30
-28.39
-35.01
-39.78
-42.55
-43.42
-42.66
-40.67
-37.92
-34.81
-31.60
-28.35
-24.94
-21.14
-16.78
-11.94
-6.94
-2.26
1.59
4.36
6.06
6.93
7.26
7.23
6.83
6.00
4.73
3.19
1.67
0.49
-0.17
-0.27
0.17
1.11
2.55
4.47
6.76
9.11
11.13
12.42
12.80
12.32
11.27
9.98
8.67
7.40
6.05
4.47
2.56
0.35
-1.95
-4.08
-5.83
-7.12
-7.95
-8.45
-8.63
-8.43
-7.72
-6.37
-4.37
-1.88
0.87
3.63
6.33
9.05
11.94
15.08
18.36
21.45
23.92
25.41
25.86
25.46
24.60
23.62
22.64
21.55
20.13
18.25
16.06
13.97
12.50
12.05
12.70
14.20
16.04
17.68
18.75
19.12
18.91
18.35
17.63
16.79
15.78
14.49
12.91
11.16
9.42
7.86
6.52
5.29
4.02
2.61
1.10
-0.34
-1.57
-2.54
-3.32
-4.11
-5.05
-6.22
-7.53
-8.79
-9.71
-10.00
-9.37
-7.65
-4.83
-1.13
3.05
7.26
11.17
14.61
17.49
19.74
21.11
21.20
19.67
16.34
11.48
5.75
0.05
-4.80
-8.37
-10.71
-12.33
-13.82
-15.50
-17.20
-18.27
-17.87
-15.39
-10.70
-4.26
3.18
10.83
18.14
24.81
30.64
35.33
38.47
39.54
38.12
34.00
27.26
18.19
7.22
-5.15
-18.30
-31.35
-43.17
-52.48
-58.14
-59.55
-57.00
-51.68
-45.32
-39.67
-35.83
-33.91
-33.16
-32.40
-30.55
-27.05
-21.99
-15.88
-9.37
-3.01
2.85
7.98
12.19
15.21
16.73
16.59
14.89
12.16
9.18
6.84
5.74
6.10
7.58
9.61
11.56
13.13
14.41
15.91
18.19
21.64
26.21
31.34
36.21
39.99
42.15
42.71
42.20
41.44
41.28
42.21
44.14
46.26
47.16
45.28
39.46
29.51
16.47
2.35
-10.62
-20.84
-27.88
-32.53
-36.33
-40.76
-46.65
-53.98
-62.05
-70.00
-77.18
-83.38
-88.74
-93.55
-98.06
-102.31
-105.93
-107.94
-106.71
-100.18
-86.65
-65.68
-38.78
-9.38
18.13
39.83
53.69
60.10
61.39
60.63
60.51
62.71
67.97
76.44
87.82
101.31
115.32
127.64
136.06
139.14
136.80
130.36
121.89
113.20
105.07
97.02
87.67
75.55
59.76
40.45
18.77
-3.46
-24.23
-41.81
-55.05
-63.49
-67.36
-67.57
-65.46
-62.55
-60.14
-58.99
-59.13
-60.00
-60.81
-61.06
-60.83
-60.76
-61.72
-64.43
-69.22
-76.05
-84.63
-94.38
-104.17
-112.02
-115.22
-111.06
-97.84
-75.84
-47.46
-16.58
12.79
37.75
57.05
70.86
79.94
84.99
86.28
83.93
78.30
70.30
61.31
52.80
45.88
40.97
37.83
35.74
33.91
31.70
28.75
24.95
20.15
14.11
6.48
-3.01
-14.22
-26.46
-38.48
-48.79
-56.00
-59.31
-58.72
-54.96
-49.22
-42.70
-36.20
-30.00
-24.02
-18.16
-12.55
-7.70
-4.22
-2.58
-2.79
-4.42
-6.84
-9.49
-12.08
-14.55
-16.83
-18.67
-19.61
-19.20
-17.30
-14.16
-10.39
-6.64
-3.40
-0.79
1.32
3.17
4.96
6.79
8.65
10.44
11.98
13.07
13.44
12.91
11.46
9.30
6.81
4.42
2.46
1.04
0.03
-0.87
-2.05
-3.81
-6.28
-9.25
-12.26
-14.66
-15.94
-15.81
-14.37
-12.02
-9.27
-6.57
-4.26
-2.52
-1.44
-1.07
-1.41
-2.38
-3.79
-5.36
-6.85
-8.02
-8.76
-9.03
-8.84
-8.24
-7.29
-6.00
-4.38
-2.44
-0.21
2.17
4.48
6.50
8.08
9.29
10.31
11.40
12.72
14.16
15.36
15.87
15.33
13.68
11.25
8.73
6.95
6.66
8.27
11.68
16.38
21.55
26.37
30.27
33.04
34.83
36.00
36.90
37.70
38.36
38.67
38.33
37.06
34.63
30.86
25.71
19.26
11.71
3.40
-5.34
-14.29
-23.32
-32.37
-41.20
-49.29
-55.80
-59.82
-60.63
-58.13
-52.91
-46.06
-38.85
-32.23
-26.61
-21.73
-16.94
-11.55
-5.16
2.17
9.92
17.34
23.71
28.55
31.68
33.09
32.86
30.97
27.43
22.37
16.23
9.72
3.68
-1.04
-3.84
-4.44
-2.96
0.14
4.15
8.17
11.39
13.27
13.62
12.65
10.71
8.09
4.89
1.06
-3.42
-8.26
-12.78
-16.10
-17.44
-16.46
-13.48
-9.47
-5.68
-3.27
-2.80
-4.00
-5.87
-7.00
-6.12
-2.67
2.84
8.89
13.50
14.96
12.73
7.77
2.42
-0.49
1.31
8.47
19.57
31.47
40.20
42.28
35.68
20.41
-1.55
-26.94
-52.19
-74.42
-92.28
-106.27
-118.25
-130.36
-143.51
-156.18
-164.30
-162.53
-146.44
-114.87
-70.97
-21.48
25.74
64.59
92.65
111.36
124.26
134.67
143.83
150.56
152.36
147.16
134.65
116.65
96.36
77.12
61.35
50.12
43.44
40.85
41.77
45.65
51.68
58.52
64.29
66.96
65.03
58.19
47.53
35.26
23.94
15.69
11.40
10.47
11.09
10.96
8.14
1.86
-7.29
-17.67
-27.39
-35.12
-40.55
-44.35
-47.59
-51.05
-54.84
-58.41
-60.87
-61.53
-60.17
-57.02
-52.65
-47.69
-42.73
-38.26
-34.66
-32.16
-30.78
-30.26
-30.11
-29.72
-28.54
-26.26
-22.86
-18.54
-13.68
-8.65
-3.84
0.48
4.10
6.89
8.84
10.01
10.60
10.83
11.01
11.45
12.35
13.69
15.24
16.61
17.39
17.41
16.81
16.02
15.61
16.00
17.30
19.25
21.31
22.86
23.48
23.08
21.89
20.40
19.11
18.26
17.79
17.35
16.55
15.21
13.49
11.87
10.86
10.71
11.16
11.57
11.11
9.25
5.97
1.86
-2.13
-5.09
-6.47
-6.23
-4.70
-2.38
0.21
2.51
3.74
2.95
-0.66
-7.23
-15.67
-23.61
-28.18
-27.18
-20.38
-10.03
-0.29
4.30
0.60
-11.88
-31.00
-53.06
-74.35
-92.45
-106.56
-116.95
-123.98
-127.34
-125.90
-118.31
-104.07
-84.30
-62.27
-43.04
-32.53
-36.35
-58.63
-101.05
-162.18
-237.11
-317.75
-394.08
-456.15
-496.42
-511.56
-502.79
-474.55
-432.33
-380.52
-321.58
-256.61
-186.54
-113.18
-39.27
32.21
99.06
160.49
216.96
269.65
320.02
369.55
419.30
469.07
516.68
557.61
586.06
597.31
590.24
568.55
539.35
509.70
482.84
456.48
424.59
381.71
327.34
267.49
212.24
170.84
147.07
138.02
136.53
135.33
130.17
120.27
106.53
89.17
66.94
38.13
2.36
-38.30
-79.75
-117.45
-148.09
-170.32
-184.54
-192.24
-195.40
-196.12
-195.94
-195.10
-192.04
-183.81
-167.65
-143.16
-113.56
-85.05
-64.19
-54.56
-54.49
-57.41
-54.80
-40.36
-13.25
21.25
54.24
77.49
87.27
85.89
80.32
78.85
87.42
107.39
135.38
165.07
189.69
204.24
206.48
196.80
177.45
151.51
122.20
92.55
65.29
42.69
26.32
16.86
13.83
15.79
20.68
26.49
31.84
36.24
39.65
41.80
41.40
35.68
21.13
-4.71
-41.05
-82.49
-119.41
-140.84
-138.75
-111.74
-66.66
-17.10
21.10
34.98
19.07
-22.65
-78.00
-130.30
-163.08
-164.33
-129.26
-60.89
30.82
131.44
225.42
299.21
343.76
356.10
339.72
303.95
261.71
226.22
207.27
208.32
225.71
250.43
271.82
281.29
275.17
254.98
225.71
193.17
161.68
133.05
107.11
82.48
57.44
30.33
-0.34
-35.58
-75.76
-120.32
-168.25
-218.34
-269.84
-322.92
-378.78
-439.64
-508.06
-585.51
-670.74
-758.46
-839.64
-903.68
-941.81
-950.28
-931.65
-893.51
-845.24
-794.62
-745.78
-699.30
-653.96
-608.70
-563.57
-519.46
-477.13
-436.42
-396.30
-355.54
-313.50
-270.51
-227.89
-187.30
-149.99
-116.46
-86.28
-58.50
-32.08
-6.51
18.09
40.89
60.80
76.82
88.50
96.11
100.61
103.40
106.00
109.66
115.05
122.19
130.63
139.75
149.21
159.16
170.33
183.66
199.96
219.63
242.60
268.58
297.06
327.13
357.10
384.32
405.73
418.88
423.20
420.35
413.51
405.70
398.11
389.57
377.51
359.71
335.97
308.41
280.42
254.89
232.97
214.03
196.56
179.37
162.26
145.82
130.80
117.45
105.37
93.67
81.53
68.70
55.73
44.04
35.48
31.67
33.23
39.42
48.21
57.09
64.06
68.28
70.10
70.33
69.48
67.30
63.02
56.06
46.51
35.25
23.65
12.92
3.81
-3.62
-9.82
-15.60
-21.93
-29.75
-39.65
-51.74
-65.47
-79.79
-93.42
-105.21
-114.42
-120.71
-124.09
-124.69
-122.74
-118.45
-112.01
-103.56
-93.17
-80.84
-66.64
-50.98
-34.77
-19.49
-6.91
1.47
4.97
4.08
0.25
-4.62
-8.90
-11.72
-12.85
-12.40
-10.38
-6.70
-1.44
4.80
10.79
15.09
16.59
14.99
10.85
5.15
-1.19
-7.69
-14.24
-20.89
-27.64
-34.28
-40.44
-45.77
-49.97
-52.74
-53.88
-53.28
-50.98
-47.20
-42.19
-36.04
-28.62
-19.70
-9.30
2.07
13.42
23.52
31.41
36.81
40.21
42.60
44.94
47.65
50.41
52.42
52.73
50.84
46.74
40.90
33.96
26.45
18.81
11.36
4.48
-1.32
-5.58
-8.10
-9.04
-8.95
-8.59
-8.62
-9.41
-10.91
-12.79
-14.58
-15.89
-16.55
-16.57
-16.09
-15.20
-13.94
-12.36
-10.66
-9.18
-8.34
-8.43
-9.40
-10.82
-12.04
-12.57
-12.18
-11.08
-9.70
-8.41
-7.36
-6.38
-5.12
-3.31
-0.89
1.78
4.13
5.58
5.81
4.95
3.54
2.36
2.06
3.00
5.05
7.68
10.09
11.49
11.28
9.29
5.97
2.28
-0.49
-1.18
0.88
5.50
11.76
18.22
23.44
26.40
26.64
24.33
20.01
14.37
8.12
1.90
-3.67
-7.96
-10.45
-10.86
-9.38
-6.60
-3.48
-0.97
0.27
0.07
-1.29
-3.22
-5.13
-6.61
-7.52
-7.89
-7.83
-7.39
-6.54
-5.24
-3.55
-1.69
-0.00
1.23
1.85
2.05
2.17
2.58
3.41
4.45
5.28
5.50
4.98
3.98
3.01
2.55
2.86
3.80
5.02
6.06
6.69
6.87
6.71
6.39
6.04
5.75
5.59
5.63
5.87
6.24
6.52
6.42
5.71
4.36
2.53
0.58
-1.13
-2.35
-3.03
-3.33
-3.50
-3.87
-4.72
-6.27
-8.61
-11.61
-14.96
-18.14
-20.69
-22.34
-23.17
-23.59
-24.03
-24.68
-25.36
-25.67
-25.15
-23.68
-21.45
-18.92
-16.52
-14.51
-12.89
-11.50
-10.15
-8.69
-7.08
-5.37
-3.69
-2.26
-1.26
-0.87
-1.05
-1.56
-2.09
-2.32
-2.14
-1.61
-0.89
-0.22
0.17
0.05
-0.85
-2.62
-5.13
-8.00
-10.69
-12.75
-14.01
-14.63
-14.95
-15.27
-15.68
-16.16
-16.67
-17.32
-18.40
-20.14
-22.55
-25.26
-27.62
-28.87
-28.46
-26.25
-22.51
-17.79
-12.76
-8.00
-3.83
-0.26
3.00
6.51
10.82
16.30
22.89
30.10
37.06
42.89
47.00
49.43
50.78
51.90
53.48
55.62
57.79
59.18
59.16
57.68
55.22
52.56
50.25
48.43
46.77
44.83
42.37
39.59
36.96
34.94
33.70
33.02
32.40
31.35
29.55
27.00
23.87
20.42
16.82
13.09
9.07
4.52
-0.78
-6.83
-13.37
-19.87
-25.69
-30.31
-33.47
-35.29
-36.11
-36.32
-36.24
-36.02
-35.78
-35.66
-35.87
-36.55
-37.65
-38.86
-39.78
-40.13
-39.96
-39.62
-39.64
-40.42
-42.14
-44.67
-47.77
-51.20
-54.86
-58.69
-62.62
-66.43
-69.72
-72.05
-73.10
-72.71
-70.89
-67.65
-62.85
-56.12
-47.04
-35.45
-21.66
-6.58
8.53
22.56
34.79
45.05
53.45
60.15
65.13
68.25
69.45
68.92
67.03
64.26
60.92
57.14
53.02
48.83
45.13
42.62
41.84
42.87
45.15
47.66
49.27
49.22
47.32
43.95
39.78
35.46
31.38
27.70
24.55
22.18
20.94
21.14
22.78
25.41
28.23
30.38
31.31
30.98
29.78
28.31
26.98
25.71
23.92
20.74
15.42
7.66
-2.20
-13.26
-24.36
-34.31
-42.17
-47.36
-49.71
-49.44
-47.13
-43.45
-39.09
-34.47
-29.72
-24.83
-19.79
-14.73
-9.95
-5.75
-2.33
0.23
1.93
2.73
2.58
1.59
0.15
-1.12
-1.55
-0.78
1.01
3.17
4.82
5.33
4.61
3.07
1.39
0.11
-0.73
-1.52
-2.88
-5.34
-9.07
-13.84
-19.16
-24.47
-29.24
-33.08
-35.70
-36.95
-36.80
-35.33
-32.70
-29.16
-25.10
-21.09
-17.95
-16.51
-17.32
-20.28
-24.52
-28.60
-31.06
-31.02
-28.45
-24.17
-19.36
-15.03
-11.71
-9.35
-7.50
-5.55
-2.92
0.79
5.69
11.58
17.94
24.06
29.26
33.13
35.67
37.14
37.91
38.12
37.67
36.29
33.87
30.66
27.24
24.33
22.42
21.56
21.35
21.25
20.80
19.86
18.62
17.37
16.47
16.20
16.79
18.37
20.99
24.55
28.88
33.75
38.95
44.35
49.76
54.90
59.30
62.53
64.33
64.73
64.12
63.06
62.12
61.61
61.51
61.46
60.91
59.38
56.74
53.35
49.98
47.53
46.58
47.09
48.40
49.51
49.48
47.83
44.52
39.80
33.95
27.10
19.27
10.51
1.09
-8.43
-17.29
-24.67
-29.90
-32.70
-33.23
-32.13
-30.42
-29.15
-29.14
-30.64
-33.33
-36.52
-39.47
-41.83
-43.66
-45.35
-47.30
-49.66
-52.35
-55.15
-57.89
-60.42
-62.56
-64.02
-64.43
-63.68
-62.21
-61.07
-61.65
-65.08
-71.68
-80.73
-90.73
-99.96
-107.09
-111.52
-113.31
-112.86
-110.63
-106.92
-101.95
-95.95
-89.25
-82.22
-75.14
-68.14
-61.19
-54.21
-47.26
-40.55
-34.37
-28.94
-24.19
-19.81
-15.32
-10.30
-4.66
1.30
7.01
11.88
15.57
18.12
19.87
21.29
22.72
24.27
25.84
27.21
28.15
28.47
28.05
26.79
24.68
21.77
18.20
14.13
9.73
5.19
0.74
-3.25
-6.39
-8.33
-9.01
-8.67
-7.78
-6.81
-5.95
-5.14
-4.10
-2.63
-0.73
1.40
3.50
5.52
7.66
10.36
14.07
18.97
24.86
31.08
36.76
41.12
43.72
44.60
44.19
43.11
41.88
40.82
39.95
39.17
38.23
36.90
34.98
32.35
29.13
25.60
22.17
19.17
16.71
14.65
12.61
10.19
7.12
3.36
-0.95
-5.44
-9.70
-13.31
-16.00
-17.73
-18.67
-19.16
-19.49
-19.83
-20.16
-20.39
-20.49
-20.52
-20.61
-20.76
-20.83
-20.51
-19.54
-17.81
-15.49
-12.86
-10.11
-7.24
-4.01
-0.19
4.25
8.98
13.36
16.74
18.72
19.31
18.90
18.03
17.22
16.78
16.80
17.27
18.05
19.00
19.94
20.72
21.28
21.67
22.04
22.45
22.94
23.43
23.84
24.18
24.57
25.08
25.70
26.19
26.25
25.68
24.51
23.03
21.61
20.52
19.70
18.80
17.41
15.16
11.94
7.87
3.25
-1.55
-6.16
-10.15
-13.17
-14.97
-15.46
-14.76
-13.17
-11.03
-8.67
-6.38
-4.41
-2.90
-1.80
-0.88
0.37
2.47
5.73
9.92
14.33
18.00
20.08
20.16
18.38
15.30
11.66
8.17
5.39
3.76
3.51
4.69
7.08
10.17
13.30
15.78
17.08
16.92
15.35
12.67
9.35
5.89
2.67
-0.11
-2.43
-4.33
-5.82
-6.74
-6.83
-5.85
-3.75
-0.79
2.41
4.97
6.05
5.01
1.75
-3.22
-8.86
-13.86
-17.18
-18.42
-18.02
-17.03
-16.56
-17.14
-18.36
-19.07
-17.90
-14.01
-7.57
0.40
8.48
15.57
21.27
25.75
29.25
31.69
32.57
31.32
27.91
23.13
18.35
14.94
13.51
13.70
14.47
14.83
14.36
13.33
12.38
11.79
11.25
9.97
7.20
2.73
-2.89
-8.70
-13.68
-17.28
-19.45
-20.43
-20.49
-19.74
-18.26
-16.25
-14.12
-12.41
-11.54
-11.58
-12.19
-12.87
-13.22
-13.14
-12.81
-12.59
-12.74
-13.37
-14.43
-15.77
-17.19
-18.46
-19.31
-19.56
-19.24
-18.74
-18.62
-19.38
-21.12
-23.41
-25.46
-26.51
-26.17
-24.61
-22.30
-19.75
-17.16
-14.42
-11.31
-7.79
-4.10
-0.70
2.00
3.84
5.01
5.91
6.89
8.09
9.43
10.73
11.77
12.46
12.78
12.76
12.47
12.04
11.69
11.68
12.16
13.16
14.55
16.10
17.64
19.10
20.50
21.78
22.78
23.26
23.00
21.99
20.48
18.85
17.48
16.57
16.13
15.98
15.93
15.92
16.05
16.55
17.67
19.52
21.97
24.66
27.06
28.71
29.36
29.16
28.48
27.71
27.10
26.59
26.01
25.29
24.61
24.34
24.90
26.38
28.54
30.80
32.52
33.22
32.73
31.11
28.57
25.46
22.18
19.23
16.99
15.64
15.07
14.97
14.97
14.77
14.28
13.63
13.07
12.85
13.08
13.74
14.83
16.09
17.11
17.42
16.78
15.22
13.06
10.61
8.19
6.39
5.63
6.17
8.12
11.46
15.95
21.25
26.81
32.38
38.47
45.37
52.83
59.92
65.35
67.91
67.28
64.05
60.37
59.83
65.20
77.21
94.03
111.75
125.74
132.62
131.32
118.66
95.35
64.36
29.84
-4.34
-36.04
-65.74
-93.34
-123.22
-158.90
-200.27
-244.01
-284.28
-314.75
-329.43
-325.77
-305.66
-275.03
-240.44
-206.03
-172.93
-139.64
-103.54
-62.47
-15.68
36.23
91.16
146.04
196.92
238.58
265.60
274.03
262.62
232.60
186.66
127.71
59.12
-14.20
-85.04
-143.79
-180.40
-187.60
-164.02
-115.48
-53.64
7.57
55.75
82.57
84.87
63.83
23.66
-29.57
-88.44
-144.54
-188.96
-213.77
-213.85
-188.90
-144.15
-89.76
-38.16
-0.71
15.36
8.51
-17.53
-55.55
-97.28
-135.46
-165.07
-183.53
-190.33
-186.36
-173.42
-153.73
-129.67
-103.57
-77.58
-53.51
-32.48
-14.84
-0.01
13.10
25.59
37.90
49.63
59.77
67.41
72.36
75.50
78.46
82.82
89.44
98.02
107.27
115.55
121.50
124.60
125.17
124.16
122.75
122.07
122.89
125.33
128.62
130.92
129.39
121.03
103.76
77.70
45.60
12.19
-17.42
-39.61
-53.28
-59.50
-60.31
-57.23
-50.76
-40.78
-27.64
-12.88
1.05
11.68
17.80
19.94
19.99
20.08
21.48
24.01
26.34
26.73
23.85
17.44
8.32
-1.92
-11.57
-19.45
-25.21
-29.30
-32.51
-35.48
-38.36
-40.84
-42.42
-42.79
-41.97
-40.23
-37.87
-34.98
-31.46
-27.19
-22.28
-17.13
-12.33
-8.36
-5.35
-2.96
-0.51
2.79
7.51
13.80
21.29
29.24
36.85
43.61
49.50
54.91
60.24
65.49
70.04
72.88
73.20
70.99
67.46
64.63
64.72
69.32
78.99
93.37
111.29
130.93
149.62
163.86
169.58
163.13
142.37
107.26
59.98
4.16
-56.16
-117.41
-176.87
-232.44
-281.92
-322.53
-350.97
-364.08
-359.99
-339.02
-303.77
-258.31
-206.74
-152.00
-95.76
-39.41
14.63
62.22
98.06
117.52
118.75
103.99
79.36
53.46
35.14
31.60
47.04
82.43
135.73
202.42
276.12
349.19
413.54
461.86
488.98
493.05
476.01
443.05
400.80
355.46
311.02
268.77
227.99
187.43
146.91
108.22
74.83
50.42
37.26
34.93
40.54
50.02
59.93
68.64
76.15
82.99
88.83
91.96
89.97
81.08
65.26
44.28
20.86
-2.41
-23.78
-42.28
-57.47
-69.20
-77.53
-82.95
-86.25
-88.28
-89.52
-90.13
-90.13
-89.94
-90.55
-93.30
-99.22
-108.41
-119.89
-131.82
-142.03
-148.52
-149.77
-145.01
-134.54
-119.94
-103.97
-89.81
-79.96
-75.32
-74.84
-76.32
-77.60
-77.70
-77.08
-76.91
-77.85
-79.37
-79.88
-77.82
-72.77
-65.97
-59.80
-56.52
-57.14
-60.82
-65.43
-68.74
-69.40
-67.62
-64.80
-62.83
-63.30
-66.89
-73.26
-81.06
-87.93
-90.79
-86.69
-74.06
-53.81
-29.93
-8.56
3.84
2.64
-13.45
-42.46
-80.28
-122.36
-165.01
-205.81
-243.37
-276.84
-305.69
-329.81
-349.65
-366.25
-380.86
-394.47
-407.47
-419.33
-428.97
-435.21
-437.42
-435.66
-430.44
-421.88
-409.11
-390.12
-362.54
-324.77
-277.08
-221.91
-163.01
-104.28
-48.60
2.73
49.66
92.92
133.61
173.18
213.25
255.05
298.48
341.29
379.07
406.50
419.39
416.47
400.05
375.04
346.99
320.05
296.09
275.12
256.42
239.64
225.15
213.56
205.11
199.34
195.33
192.17
189.36
186.72
184.30
182.05
179.71
176.79
172.72
166.95
158.98
148.49
135.28
119.34
100.86
80.33
58.82
38.09
20.45
8.11
2.33
2.46
5.85
8.69
7.49
0.69
-10.78
-24.00
-35.68
-43.72
-48.01
-50.12
-52.10
-55.23
-59.35
-63.17
-65.27
-65.02
-62.95
-60.27
-58.01
-56.37
-54.66
-51.96
-47.90
-43.16
-39.34
-38.08
-40.26
-45.44
-52.14
-58.49
-63.09
-65.48
-66.07
-65.76
-65.33
-65.16
-65.19
-65.03
-64.15
-62.16
-58.96
-54.93
-50.94
-48.12
-47.53
-49.63
-53.99
-59.38
-64.23
-67.33
-68.21
-67.24
-65.16
-62.54
-59.42
-55.47
-50.41
-44.44
-38.34
-33.11
-29.44
-27.32
-26.12
-24.96
-23.24
-20.92
-18.48
-16.52
-15.39
-14.91
-14.52
-13.57
-11.74
-9.20
-6.57
-4.68
-4.14
-5.15
-7.42
-10.30
-13.04
-15.15
-16.41
-16.87
-16.58
-15.41
-12.89
-8.48
-1.82
6.96
17.07
27.29
36.20
42.66
46.07
46.47
44.46
40.97
37.00
33.42
30.79
29.30
28.80
28.84
28.87
28.46
27.49
26.14
24.83
23.98
23.88
24.57
25.83
27.28
28.48
29.08
28.84
27.65
25.46
22.32
18.33
13.71
8.79
3.98
-0.31
-3.76
-6.31
-8.09
-9.51
-10.95
-12.66
-14.59
-16.52
-18.19
-19.59
-21.04
-23.12
-26.31
-30.75
-36.02
-41.23
-45.28
-47.31
-46.93
-44.32
-40.09
-35.07
-30.04
-25.52
-21.67
-18.23
-14.70
-10.62
-5.80
-0.51
4.61
8.86
11.86
13.69
14.93
16.27
18.30
21.22
24.81
28.66
32.22
35.02
36.65
36.93
35.85
33.64
30.69
27.35
23.91
20.55
17.40
14.62
12.37
10.75
9.70
8.94
8.12
6.98
5.48
3.87
2.49
1.65
1.37
1.45
1.53
1.27
0.46
-0.93
-2.75
-4.74
-6.60
-8.06
-8.90
-8.97
-8.23
-6.77
-4.74
-2.35
0.19
2.74
5.21
7.58
9.87
12.07
14.16
16.10
17.84
19.37
20.67
21.73
22.54
23.03
23.18
23.04
22.77
22.60
22.79
23.53
24.80
26.34
27.67
28.25
27.70
25.96
23.41
20.69
18.42
16.95
16.26
16.02
15.80
15.31
14.47
13.35
12.09
10.74
9.30
7.74
6.13
4.65
3.51
2.83
2.64
2.73
2.74
2.31
1.18
-0.76
-3.35
-6.27
-9.11
-11.40
-12.75
-12.93
-11.88
-9.77
-6.95
-3.86
-0.92
1.58
3.53
5.00
6.18
7.25
8.32
9.35
10.20
10.67
10.59
9.90
8.67
7.13
5.60
4.42
3.85
3.96
4.66
5.66
6.70
7.55
8.14
8.50
8.74
8.95
9.17
9.42
9.72
10.09
10.59
11.20
11.81
12.23
12.27
11.79
10.78
9.32
7.57
5.66
3.63
1.49
-0.82
-3.35
-6.07
-8.85
-11.47
-13.74
-15.50
-16.61
-17.04
-16.74
-15.72
-14.02
-11.76
-9.13
-6.43
-3.94
-1.92
-0.50
0.40
0.98
1.59
2.50
3.86
5.61
7.53
9.36
10.90
11.97
12.56
12.70
12.46
11.95
11.37
10.88
10.58
10.44
10.33
10.06
9.48
8.57
7.40
6.10
4.79
3.52
2.31
1.16
0.10
-0.89
-1.82
-2.75
-3.74
-4.80
-5.97
-7.21
-8.47
-9.57
-10.31
-10.47
-10.00
-9.15
-8.43
-8.56
-10.07
-13.12
-17.32
-21.82
-25.62
-27.93
-28.40
-27.25
-25.07
-22.55
-20.19
-18.12
-16.11
-13.55
-9.83
-4.70
1.31
6.79
9.77
8.18
0.42
-14.30
-35.66
-62.28
-91.71
-120.79
-146.16
-165.19
-176.79
-182.06
-184.10
-186.83
-193.17
-203.59
-215.58
-224.70
-226.52
-218.10
-198.67
-169.14
-131.54
-88.57
-43.55
-0.36
37.11
66.04
85.75
98.16
107.02
116.68
130.46
149.39
172.10
195.08
213.17
220.44
211.45
183.43
138.18
82.65
27.69
-15.26
-37.64
-35.82
-10.98
32.69
89.75
154.09
218.42
274.05
311.94
325.30
312.61
279.07
235.47
194.63
167.01
157.81
166.38
187.86
215.50
243.03
266.06
282.25
291.15
293.55
290.72
283.76
273.18
259.22
242.31
223.49
204.35
186.46
170.77
157.32
145.25
133.39
120.84
107.33
93.09
78.53
64.07
50.11
37.19
25.83
16.25
8.00
-0.21
-9.82
-21.52
-34.59
-46.99
-56.67
-63.02
-67.92
-75.35
-89.61
-113.16
-145.20
-181.84
-217.90
-249.06
-273.30
-290.82
-302.80
-310.03
-312.47
-309.76
-302.21
-291.24
-278.86
-266.51
-254.08
-239.98
-222.18
-199.83
-174.29
-149.05
-128.04
-113.41
-103.69
-93.98
-77.88
-50.80
-13.01
29.51
66.81
88.91
90.03
70.72
37.00
-3.34
-44.58
-84.85
-124.79
-164.70
-202.45
-233.45
-252.82
-257.88
-248.97
-228.19
-197.31
-156.87
-107.34
-51.87
1.79
42.24
58.65
45.79
7.18
-46.06
-99.77
-142.33
-168.34
-178.64
-177.36
-168.27
-152.68
-129.81
-99.06
-62.05
-22.66
14.73
47.81
77.85
109.18
146.84
193.70
248.45
305.49
356.49
393.18
410.08
406.43
386.28
357.04
327.05
302.77
286.67
277.01
269.21
258.40
241.83
219.90
195.62
172.94
154.71
141.59
132.19
124.07
115.01
103.95
90.85
76.20
60.18
42.26
21.36
-3.57
-32.82
-65.36
-98.59
-128.85
-152.40
-166.73
-171.72
-169.80
-165.10
-161.53
-161.02
-162.64
-163.31
-159.71
-150.19
-135.65
-118.68
-101.86
-86.08
-70.24
-52.25
-30.61
-5.37
22.05
50.10
78.21
106.95
137.12
168.48
199.18
226.40
247.61
261.83
269.77
273.27
274.19
273.81
272.83
271.68
270.67
269.70
267.82
263.23
254.02
239.28
219.66
197.37
174.92
153.75
133.36
111.65
85.46
51.73
8.63
-43.14
-99.31
-151.55
-188.38
-198.15
-173.37
-114.62
-31.78
58.36
137.59
192.41
217.89
217.60
200.22
174.97
148.22
122.74
98.83
76.25
55.18
36.04
18.79
2.51
-14.31
-32.85
-52.84
-72.82
-90.92
-105.89
-118.36
-130.91
-147.02
-169.12
-196.65
-225.17
-247.83
-258.24
-253.78
-237.51
-217.49
-203.76
-204.12
-220.62
-248.54
-277.49
-294.63
-288.53
-252.77
-188.44
-104.94
-17.90
55.56
102.90
120.86
116.26
101.81
89.09
83.11
80.58
73.35
54.20
21.21
-21.89
-68.70
-113.62
-153.71
-187.37
-212.69
-226.94
-228.80
-220.36
-208.78
-203.49
-211.18
-231.58
-256.81
-274.69
-274.45
-251.79
-209.45
-155.78
-100.01
-48.50
-3.58
35.08
67.87
93.39
108.78
113.83
111.82
110.77
120.55
147.86
191.82
242.94
286.22
306.39
298.87
266.77
220.35
171.49
128.07
91.53
57.88
20.90
-26.53
-80.40
-136.97
-191.18
-239.08
-279.68
-315.04
-349.30
-387.71
-437.90
-494.72
-557.32
-623.11
-687.81
-745.68
-790.17
-815.50
-820.50
-810.66
-781.65
-739.09
-688.45
-633.55
-576.34
-517.49
-457.48
-353.23
-262.97
-182.35
-116.57
-69.69
-42.53
-31.19
-27.40
-20.93
-7.81
13.10
48.62
94.59
147.27
205.48
270.22
341.79
444.61
534.75
600.83
639.33
646.10
624.78
586.01
543.84
510.79
493.58
486.84
484.48
480.18
465.10
434.83
390.16
335.45
276.02
215.65
152.58
88.85
26.44
-33.48
-88.81
-138.18
-182.62
-225.88
-272.60
-327.11
-384.48
-434.84
-465.83
-466.64
-432.75
-368.02
-283.06
-190.79
-102.84
-23.45
47.25
112.04
174.08
235.44
297.18
360.01
424.11
487.78
547.27
595.60
624.66
628.13
604.31
557.06
494.38
425.41
357.45
294.55
237.79
186.60
140.13
97.48
57.60
18.75
-21.12
-63.60
-109.12
-156.79
-204.89
-251.45
-294.87
-334.34
-370.23
-404.46
-440.41
-481.73
-530.16
-583.38
-634.24
-672.38
-688.03
-676.14
-638.72
-583.90
-522.49
-463.56
-411.60
-366.60
-325.89
-286.92
-248.76
-212.06
-178.08
-147.95
-122.41
-102.41
-89.27
-83.99
-86.21
-93.20
-100.02
-100.93
-91.40
-69.66
-37.12
2.73
46.06
90.06
133.59
176.76
220.09
263.72
306.71
346.89
381.24
406.81
421.50
424.91
418.47
404.40
385.01
362.01
336.63
310.28
285.04
263.57
248.08
239.26
235.68
234.28
231.62
224.96
212.53
193.26
166.37
132.07
92.41
51.89
16.57
-8.10
-19.76
-20.11
-13.83
-5.96
0.69
6.29
12.69
20.99
29.74
35.19
33.38
22.74
5.35
-13.74
-28.93
-36.62
-36.59
-31.44
-25.05
-20.57
-19.00
-18.93
-17.24
-10.56
3.39
24.90
52.75
84.69
118.53
152.81
187.14
221.98
258.09
295.99
335.47
375.32
413.05
445.03
467.05
475.27
467.49
444.12
408.45
365.74
321.42
279.33
240.77
204.66
168.67
130.91
91.09
50.53
11.55
-24.02
-55.88
-85.73
-116.72
-152.81
-197.15
-250.90
-312.30
-376.11
-434.47
-478.67
-501.56
-499.39
-472.69
-425.51
-364.16
-295.70
-226.71
-162.38
-105.43
-55.93
-12.00
28.63
66.46
98.82
120.42
126.10
114.03
87.54
53.90
20.62
-8.45
-34.72
-62.95
-96.88
-135.39
-171.88
-197.22
-205.02
-195.93
-178.38
-164.78
-165.20
-181.87
-207.42
-228.43
-231.98
-211.91
-171.21
-119.43
-67.19
-20.34
22.51
68.07
123.68
192.48
271.06
350.42
419.62
469.53
495.45
497.76
481.54
455.35
429.31
412.37
409.57
420.11
437.56
452.49
456.53
445.68
420.99
386.61
346.56
302.42
253.57
199.43
142.04
86.55
39.24
3.95
-20.26
-39.25
-60.98
-91.76
-133.16
-181.35
-229.20
-269.75
-299.60
-320.40
-337.81
-358.95
-389.47
-431.69
-484.38
-543.04
-600.65
-648.31
-676.78
-679.22
-654.96
-611.77
-564.86
-531.56
-523.94
-543.07
-578.31
-612.44
-629.81
-623.07
-594.74
-553.74
-509.31
-466.42
-425.07
-382.98
-339.09
-295.27
-255.57
-223.36
-199.01
-179.41
-159.48
-134.92
-104.29
-69.46
-34.62
-3.98
20.29
38.93
55.01
72.37
93.60
118.91
146.19
172.18
194.18
211.46
225.55
239.45
256.14
277.17
301.86
327.74
351.68
371.45
386.94
400.58
416.73
439.90
472.42
512.44
553.36
585.29
598.35
586.36
549.22
492.80
426.35
358.88
296.66
242.34
195.71
154.89
117.18
79.76
40.67
0.01
-39.04
-70.58
-88.09
-87.50
-69.73
-40.82
-9.81
14.91
28.59
31.01
25.09
14.11
-0.53
-19.89
-46.01
-79.42
-116.89
-151.02
-172.25
-172.62
-149.61
-107.72
-56.81
-7.99
31.05
58.68
78.93
98.38
121.92
149.99
178.12
198.92
205.29
193.11
161.96
114.16
52.99
-18.35
-96.32
-175.55
-248.02
-303.81
-333.94
-333.75
-305.25
-256.39
-198.11
-140.33
-88.72
-44.26
-4.35
35.17
78.41
128.29
186.03
250.64
318.68
384.65
442.17
485.82
512.46
521.99
516.70
500.36
476.86
449.52
420.79
392.31
365.16
339.90
316.63
294.38
271.97
248.19
222.30
194.13
163.90
132.08
98.99
64.93
29.61
-6.41
-41.70
-74.37
-103.12
-128.19
-151.45
-175.55
-202.48
-234.34
-271.49
-312.95
-357.11
-402.18
-446.53
-488.72
-527.43
-561.29
-591.62
-620.11
-648.26
-676.43
-703.17
-725.71
-740.78
-745.65
-723.89
-664.52
-563.59
-427.48
-271.59
-114.40
29.06
150.24
246.70
320.09
371.31
401.83
414.48
412.67
400.27
381.57
360.44
339.96
322.27
306.08
289.36
270.03
246.84
219.78
191.02
163.27
139.10
120.80
107.78
98.57
91.17
83.75
75.32
65.80
55.75
45.75
36.41
25.66
10.39
-13.23
-48.83
-98.75
-163.79
-243.45
-337.08
-433.57
-520.97
-587.13
-622.60
-622.59
-587.64
-523.51
-440.12
-350.40
-266.48
-197.82
-148.11
-115.73
-95.80
-83.12
-76.44
-72.86
-70.33
-66.68
-60.91
-52.70
-43.00
-33.43
-25.82
-21.49
-20.16
-20.63
-20.72
-18.64
-12.98
-4.85
4.26
12.69
19.16
23.49
25.97
27.56
29.04
30.83
32.79
34.60
35.79
36.01
35.46
34.49
33.62
33.17
33.22
33.45
33.44
32.71
30.85
27.78
23.57
18.49
12.88
7.04
1.15
-4.59
-10.12
-15.45
-20.61
-25.68
-30.76
-36.00
-41.54
-47.53
-53.98
-60.89
-68.14
-75.57
-82.94
-89.98
-96.39
-101.91
-106.32
-109.44
-111.18
-111.49
-110.43
-108.07
-104.52
-99.92
-94.34
-87.84
-80.43
-72.12
-62.89
-52.74
-41.72
-29.95
-17.57
-4.84
7.96
20.47
32.31
43.12
52.54
60.31
66.24
70.24
72.35
72.71
71.54
69.11
65.69
61.56
57.01
52.29
47.66
43.35
39.55
36.41
33.99
32.25
31.06
30.26
29.69
29.22
28.80
28.46
28.22
28.09
27.99
27.79
27.36
26.68
25.88
25.30
25.38
26.50
28.86
32.36
36.66
41.24
45.74
50.07
54.48
59.47
65.47
72.60
80.47
88.28
95.03
100.05
103.21
105.09
106.71
109.11
112.91
118.02
123.80
129.44
134.43
138.89
143.59
149.82
159.16
173.36
193.91
221.24
253.78
287.27
315.18
330.37
327.56
305.33
266.71
218.02
166.48
117.98
76.04
42.04
16.18
-1.83
-12.70
-17.91
-19.96
-21.89
-26.36
-34.60
-45.95
-58.13
-67.90
-72.07
-68.38
-56.01
-35.80
-9.95
18.64
47.11
73.36
96.24
115.55
131.58
144.88
156.04
165.56
173.76
180.59
185.56
187.96
187.27
183.60
177.84
171.29
165.01
159.26
153.43
146.49
137.74
127.32
116.21
105.71
96.66
89.09
82.27
75.17
67.14
58.17
48.92
40.20
32.60
26.15
20.47
15.00
9.48
3.97
-1.14
-5.49
-8.99
-11.87
-14.53
-17.26
-20.04
-22.49
-24.07
-24.41
-23.41
-21.41
-19.04
-17.06
-16.10
-16.55
-18.40
-21.20
-24.16
-26.42
-27.25
-26.38
-24.04
-20.81
-17.42
-14.45
-12.16
-10.46
-9.03
-7.46
-5.41
-2.66
0.81
4.87
9.24
13.61
17.74
21.56
25.20
28.91
33.02
37.70
42.91
48.44
54.00
59.36
64.40
69.09
73.38
77.25
80.70
83.89
87.13
90.84
95.33
100.56
106.13
111.35
115.56
118.65
121.02
123.48
126.64
130.20
132.79
132.55
128.51
121.73
115.36
113.14
117.00
125.30
132.58
131.69
117.01
86.74
43.04
-9.79
-67.68
-127.67
-186.56
-238.78
-275.76
-288.44
-272.10
-230.48
-176.05
-125.26
-91.20
-77.86
-79.70
-86.39
-89.94
-88.96
-87.57
-90.28
-96.74
-100.50
-92.71
-68.49
-31.07
8.53
36.48
42.77
24.96
-12.46
-62.03
-117.61
-176.06
-235.52
-292.56
-340.34
-369.67
-372.50
-345.50
-291.86
-220.21
-141.45
-65.24
2.02
57.40
100.22
130.81
149.67
157.21
153.84
140.20
117.61
88.65
57.37
28.85
7.55
-4.33
-7.74
-6.07
-3.20
-1.40
-0.49
1.29
5.43
11.69
18.17
22.50
23.37
21.24
17.65
13.94
10.20
5.16
-2.86
-14.67
-29.36
-44.35
-56.32
-62.47
-61.60
-54.47
-43.42
-31.38
-20.84
-13.08
-8.16
-5.37
-3.73
-2.25
0.36
5.66
15.09
28.91
45.31
60.42
69.66
69.86
60.92
46.09
30.46
18.67
13.09
13.41
17.50
23.00
28.45
33.53
38.61
43.91
49.12
53.41
55.93
56.33
55.03
53.09
51.77
51.97
53.85
56.89
60.27
63.39
66.33
69.75
74.61
81.72
91.40
103.53
117.60
132.92
148.80
164.69
180.36
195.89
211.40
226.75
241.34
254.21
264.40
271.24
274.38
273.61
268.55
258.66
243.53
223.35
199.09
172.39
145.04
118.50
93.65
70.88
50.25
31.60
14.50
-1.76
-18.12
-35.36
-53.77
-72.90
-91.80
-109.50
-125.50
-140.28
-155.05
-171.35
-190.34
-212.30
-236.58
-262.02
-287.51
-312.72
-338.19
-365.33
-396.15
-433.00
-478.02
-532.26
-594.39
-659.80
-720.79
-768.26
-794.55
-796.18
-775.04
-737.47
-691.55
-644.17
-599.18
-557.51
-518.52
-481.63
-447.10
-415.72
-387.86
-362.83
-338.98
-314.40
-287.87
-259.24
-229.49
-200.07
-172.18
-146.21
-121.55
-96.92
-70.91
-42.60
-11.94
20.23
52.50
83.47
112.26
138.71
163.38
187.19
210.99
235.34
260.58
286.88
314.26
342.22
369.38
393.25
410.75
419.16
417.27
406.04
388.20
367.23
345.94
325.63
306.22
286.94
267.31
247.55
228.44
210.67
194.36
179.01
163.91
148.66
133.47
119.03
106.06
94.91
85.26
76.49
67.94
59.33
50.79
42.69
35.35
28.79
22.77
16.90
10.87
4.60
-1.82
-8.15
-14.12
-19.48
-24.01
-27.50
-29.82
-30.91
-30.88
-29.99
-28.68
-27.44
-26.73
-26.84
-27.80
-29.49
-31.66
-34.08
-36.54
-38.81
-40.60
-41.51
-41.16
-39.33
-36.09
-31.81
-27.06
-22.36
-17.99
-13.91
-9.84
-5.47
-0.56
4.89
10.72
16.75
22.82
28.81
34.63
40.15
45.22
49.79
53.92
57.86
61.81
65.81
69.73
73.37
76.70
79.97
83.43
86.99
89.83
90.56
87.87
81.16
70.86
58.07
43.99
29.45
15.01
1.48
-9.64
-16.48
-17.56
-12.78
-3.65
7.40
18.21
28.00
37.32
47.31
58.48
70.21
80.93
88.96
93.26
93.67
90.74
85.34
78.46
71.06
63.92
57.37
51.03
43.86
34.70
23.06
9.66
-3.59
-14.38
-20.99
-23.09
-21.75
-18.96
-16.79
-16.75
-19.51
-24.91
-32.12
-39.92
-47.02
-52.42
-55.69
-57.02
-57.01
-56.32
-55.43
-54.60
-53.97
-53.68
-53.86
-54.46
-55.06
-54.96
-53.38
-49.89
-44.74
-38.85
-33.43
-29.55
-27.62
-27.21
-27.25
-26.43
-23.82
-19.17
-12.96
-6.17
0.20
5.36
8.96
10.93
11.45
10.79
9.35
7.61
6.01
4.78
3.93
3.28
2.67
2.11
1.76
1.75
2.05
2.52
3.06
3.88
5.48
8.45
13.16
19.59
27.47
36.66
47.39
60.16
75.27
92.28
109.62
124.86
135.28
138.78
134.47
122.87
105.62
84.84
62.40
39.40
16.07
-7.87
-32.54
-57.18
-80.00
-98.66
-111.13
-116.58
-115.59
-109.63
-100.20
-88.08
-73.34
-55.83
-35.91
-14.68
6.20
25.17
41.16
53.72
62.63
67.72
68.81
66.06
60.32
53.14
46.27
41.07
37.96
36.53
35.97
35.64
35.35
35.09
34.67
33.35
30.01
23.60
13.82
1.44
-11.85
-24.04
-33.58
-39.85
-43.32
-45.10
-46.40
-47.89
-49.53
-50.70
-50.59
-48.81
-45.62
-41.85
-38.56
-36.49
-35.82
-36.14
-36.75
-36.98
-36.41
-34.89
-32.51
-29.41
-25.79
-21.86
-17.89
-14.17
-10.94
-8.36
-6.44
-5.05
-3.87
-2.57
-0.85
1.39
3.95
6.50
8.64
10.20
11.24
12.01
12.78
13.68
14.65
15.53
16.11
16.24
15.84
14.84
13.19
10.95
8.32
5.64
3.29
1.58
0.54
0.02
-0.34
-0.79
-1.46
-2.34
-3.31
-4.37
-5.58
-7.05
-8.83
-10.86
-12.97
-14.92
-16.52
-17.56
-17.92
-17.42
-15.96
-13.49
-10.14
-6.17
-1.98
2.01
5.46
8.25
10.42
12.11
13.50
14.73
15.82
16.78
17.58
18.29
18.98
19.77
20.73
21.86
23.13
24.55
26.17
28.12
30.55
33.52
37.03
40.88
44.77
48.35
51.29
53.45
54.84
55.50
55.39
54.33
52.15
48.89
44.99
41.11
37.98
36.02
35.26
35.41
36.19
37.47
39.18
41.17
43.04
44.13
43.84
41.87
38.23
33.10
26.55
18.59
9.21
-1.46
-13.05
-25.17
-37.66
-50.66
-64.52
-79.48
-95.37
-111.40
-126.34
-138.72
-147.25
-151.00
-149.56
-143.06
-132.09
-117.64
-100.95
-83.38
-66.25
-50.79
-37.97
-28.43
-22.29
-19.21
-18.37
-18.75
-19.34
-19.44
-18.85
-17.84
-16.94
-16.71
-17.43
-18.98
-20.88
-22.42
-22.94
-21.95
-19.23
-14.82
-8.99
-2.17
5.10
12.25
18.73
24.13
28.29
31.27
33.33
34.78
35.92
36.89
37.70
38.26
38.47
38.25
37.54
36.27
34.34
31.66
28.23
24.26
20.13
16.37
13.42
11.46
10.25
9.27
7.93
5.88
3.15
0.10
-2.76
-5.15
-7.09
-8.88
-10.96
-13.70
-17.33
-21.98
-27.62
-33.95
-40.28
-45.43
-48.02
-46.95
-41.95
-33.79
-24.02
-14.32
-5.82
1.23
7.30
13.14
19.20
25.45
31.47
36.75
40.96
44.07
46.18
47.40
47.68
46.83
44.63
40.96
35.99
30.22
24.53
19.85
16.91
15.76
15.71
15.52
14.02
10.64
5.72
0.34
-4.20
-7.01
-7.95
-7.56
-6.72
-6.12
-6.02
-6.20
-6.27
-5.98
-5.38
-4.77
-4.56
-5.00
-6.08
-7.53
-8.91
-9.84
-10.11
-9.78
-9.11
-8.38
-7.74
-7.20
-6.54
-5.51
-3.97
-1.94
0.37
2.64
4.60
6.09
7.07
7.58
7.75
7.73
7.67
7.73
7.97
8.32
8.60
8.61
8.27
7.67
7.06
6.70
6.67
6.86
6.99
6.82
6.32
5.70
5.24
5.18
5.50
5.94
6.11
5.75
4.82
3.50
2.09
0.78
-0.37
-1.44
-2.59
-3.86
-5.19
-6.38
-7.30
-7.92
-8.40
-9.00
-9.90
-11.12
-12.50
-13.78
-14.72
-15.23
-15.34
-15.09
-14.47
-13.44
-11.94
-10.06
-7.98
-5.93
-4.05
-2.34
-0.66
1.13
3.05
4.96
6.56
7.57
7.83
7.35
6.35
5.15
4.05
3.23
2.73
2.47
2.34
2.27
2.27
2.35
2.50
2.65
2.68
2.47
1.98
1.28
0.53
-0.13
-0.63
-0.98
-1.34
-1.89
-2.76
-3.90
-5.19
-6.49
-7.73
-8.96
-10.27
-11.65
-12.95
-13.89
-14.21
-13.85
-12.93
-11.75
-10.54
-9.45
-8.46
-7.49
-6.49
-5.43
-4.39
-3.41
-2.61
-2.14
-2.18
-2.88
-4.28
-6.18
-8.20
-9.95
-11.26
-12.37
-13.95
-16.78
-21.33
-27.43
-34.02
-39.48
-42.31
-41.80
-38.41
-33.63
-29.30
-26.78
-26.47
-27.66
-29.06
-29.33
-27.56
-23.45
-17.27
-9.97
-3.34
0.02
-2.58
-12.98
-30.92
-53.43
-75.44
-91.62
-98.50
-95.86
-86.67
-74.82
-63.60
-54.07
-44.82
-33.09
-16.52
5.41
30.96
56.77
80.51
100.92
118.27
133.98
149.54
165.64
181.77
196.57
208.51
218.44
227.70
237.57
248.68
260.78
273.14
285.41
298.02
312.14
331.72
360.20
399.57
449.83
508.88
573.21
639.02
703.37
747.45
756.43
719.25
632.26
501.58
341.89
171.81
8.33
-137.04
-259.24
-355.97
-428.08
-477.73
-507.24
-518.87
-515.22
-499.77
-477.13
-452.65
-429.21
-408.14
-388.50
-367.79
-343.68
-315.74
-286.28
-259.65
-240.53
-230.44
-227.73
-227.97
-225.91
-217.94
-203.63
-185.60
-167.99
-154.34
-145.51
-140.09
-135.38
-129.09
-120.39
-109.88
-98.56
-86.86
-74.62
-61.58
-48.64
-38.02
-32.24
-32.50
-37.48
-43.61
-46.46
-42.60
-30.77
-12.02
11.06
34.99
55.93
70.34
75.81
72.08
61.60
49.08
38.96
33.85
33.28
34.09
32.54
26.48
16.57
5.72
-3.09
-8.19
-9.94
-10.26
-11.31
-14.21
-18.71
-23.64
-27.73
-30.32
-31.49
-31.86
-32.10
-32.67
-33.50
-34.08
-33.68
-31.60
-27.68
-22.42
-17.03
-12.89
-10.92
-10.89
-11.41
-10.51
-6.69
0.19
8.70
16.27
20.51
20.28
16.23
10.20
4.07
-1.22
-6.08
-11.41
-17.97
-25.40
-32.22
-36.42
-36.49
-32.37
-25.17
-16.72
-8.36
-1.09
4.54
8.06
8.94
6.75
2.13
-2.40
-2.50
6.59
26.63
54.37
81.67
98.43
97.02
76.01
41.07
0.80
-33.21
-52.50
-55.16
-45.78
-32.17
-21.21
-16.00
-15.75
-17.72
-19.42
-20.49
-22.44
-26.74
-33.35
-40.13
-43.78
-41.56
-32.72
-18.71
-2.82
11.37
21.57
27.38
29.89
30.58
30.35
29.15
26.52
21.92
15.47
8.16
1.53
-2.97
-4.65
-3.84
-1.66
0.61
1.97
2.16
1.64
1.30
1.95
3.91
6.91
10.31
13.44
15.83
17.34
18.02
18.06
17.65
16.98
16.22
15.50
14.84
14.03
12.76
10.78
8.11
5.12
2.36
0.37
-0.63
-0.85
-0.80
-1.05
-1.91
-3.35
-5.03
-6.53
-7.52
-7.92
-7.87
-7.65
-7.55
-7.79
-8.46
-9.48
-10.70
-11.95
-13.15
-14.28
-15.44
-16.67
-17.93
-19.04
-19.76
-19.93
-19.55
-18.84
-18.06
-17.40
-16.86
-16.22
-15.24
-13.78
-11.86
-9.73
-7.67
-5.87
-4.42
-3.24
-2.27
-1.57
-1.31
-1.72
-2.86
-4.57
-6.39
-7.74
-8.06
-7.15
-5.14
-2.49
0.29
2.87
5.14
7.21
9.20
11.19
13.12
14.89
16.49
18.15
20.18
22.66
25.26
27.23
27.80
26.48
23.33
19.02
14.64
11.30
9.41
8.61
8.06
6.98
5.03
2.39
-0.37
-2.55
-3.70
-4.31
-5.38
-7.87
-12.08
-17.58
-23.36
-28.00
-29.76
-26.85
-18.84
-6.79
6.45
16.43
17.90
6.21
-21.36
-64.08
-113.89
-156.89
-178.24
-169.25
-130.61
-71.23
-4.06
58.19
108.40
145.76
170.19
182.83
185.54
180.33
169.33
155.34
140.98
123.93
101.91
71.22
31.50
-11.93
-49.58
-71.68
-71.63
-49.18
-10.11
35.98
73.19
88.96
80.51
52.52
11.51
-35.79
-86.33
-134.81
-173.96
-198.27
-204.23
-187.15
-144.64
-84.92
-22.80
26.63
55.04
65.13
62.53
54.09
44.49
36.04
27.92
18.55
7.11
-5.38
-16.93
-26.11
-31.50
-32.38
-29.84
-26.57
-24.70
-24.87
-26.12
-27.06
-27.07
-25.76
-22.92
-18.84
-14.39
-10.00
-5.61
-0.85
4.26
9.00
12.65
14.79
15.31
14.25
12.05
9.47
7.36
6.36
6.72
8.62
12.27
17.84
25.27
34.27
44.30
54.60
64.38
72.85
79.57
84.41
87.52
89.24
90.00
90.25
90.41
90.76
91.28
91.59
90.94
88.51
83.64
76.08
66.02
53.98
40.61
26.51
12.11
-2.25
-16.21
-29.37
-41.24
-51.52
-60.13
-67.38
-73.75
-79.77
-85.76
-91.76
-97.50
-102.64
-106.80
-109.72
-111.29
-111.55
-110.73
-109.31
-108.06
-107.90
-109.66
-113.65
-119.28
-124.95
-128.39
-127.36
-120.72
-109.19
-95.43
-83.29
-76.23
-75.92
-81.40
-89.44
-95.71
-96.20
-88.22
-70.83
-44.64
-11.48
25.92
64.19
99.90
130.21
153.56
169.64
179.03
182.29
179.31
169.18
150.81
124.26
91.71
57.67
27.92
7.83
0.82
7.38
24.87
48.22
71.59
90.10
100.88
103.08
97.23
84.72
67.32
46.89
25.18
4.19
-13.45
-24.88
-27.95
-22.14
-8.61
10.17
30.81
49.22
61.33
64.18
56.18
37.17
8.00
-29.33
-69.75
-104.25
-124.16
-126.59
-115.14
-96.12
-74.58
-53.48
-34.05
-16.68
-1.65
10.20
18.12
22.36
24.12
25.29
27.25
30.55
35.11
40.37
45.11
48.09
48.87
47.08
43.64
39.07
33.33
26.33
18.08
8.24
-3.34
-14.69
-25.60
-35.67
-44.80
-53.25
-60.89
-67.09
-71.58
-74.13
-74.69
-73.88
-72.41
-71.27
-71.55
-74.79
-78.81
-81.79
-82.38
-79.86
-74.72
-67.98
-60.94
-55.40
-52.47
-53.00
-58.05
-67.64
-79.90
-90.87
-95.11
-85.23
-61.34
-28.20
6.40
34.26
50.35
54.06
48.57
38.89
29.85
23.23
19.85
19.77
22.28
26.46
30.55
32.52
30.98
25.85
17.93
10.24
6.52
9.70
20.39
34.96
45.69
42.88
18.41
-30.59
-99.05
-175.47
-246.11
-296.22
-317.12
-309.06
-279.86
-240.42
-199.84
-162.27
-127.25
-92.14
-54.70
-14.72
26.95
69.91
114.63
161.92
211.62
261.83
309.43
351.28
384.40
406.43
415.34
409.42
388.19
353.73
311.57
270.29
239.51
226.65
234.32
259.39
293.59
325.75
344.69
341.81
312.74
258.03
182.65
95.06
5.64
-75.51
-141.11
-188.99
-223.20
-253.08
-289.72
-341.30
-408.76
-484.35
-554.19
-603.68
-622.92
-609.70
-569.26
-511.75
-448.85
-391.07
-346.02
-317.33
-304.14
-301.46
-301.68
-296.81
-280.99
-252.12
-211.80
-163.89
-112.42
-60.09
-8.27
42.00
88.79
128.76
158.27
175.38
181.46
181.19
180.73
184.62
193.27
203.16
209.35
209.17
204.46
200.94
204.83
218.90
240.43
262.35
276.76
278.43
266.34
242.72
210.86
173.36
131.62
86.74
40.85
-2.40
-38.41
-63.05
-74.14
-71.96
-58.72
-37.29
-9.93
22.22
58.50
97.75
137.47
174.00
203.74
224.56
236.69
242.41
244.55
244.83
242.87
236.74
224.49
205.78
182.54
158.42
137.24
121.56
112.22
108.74
110.21
115.93
125.35
137.63
151.32
164.48
175.27
182.42
185.31
183.45
175.94
161.47
139.15
109.75
76.44
44.37
18.98
3.74
-1.44
-0.67
-0.65
-8.18
-27.55
-58.94
-98.25
-138.56
-172.55
-194.90
-204.11
-202.81
-196.27
-189.84
-186.90
-188.26
-193.21
-201.15
-212.44
-228.27
-248.99
-271.83
-289.85
-293.46
-273.84
-226.59
-153.84
-64.11
29.46
111.91
171.08
201.04
203.12
184.18
153.36
119.35
89.02
66.43
52.44
47.04
50.24
61.24
76.74
90.29
94.55
84.76
59.61
19.73
-32.11
-91.51
-152.81
-209.97
-257.32
-289.63
-303.21
-289.88
-251.81
-204.19
-168.80
-159.99
-176.40
-204.56
-232.49
-248.01
-245.44
-226.78
-197.50
-162.76
-125.59
-84.45
-41.83
-1.82
31.60
53.93
60.60
50.15
26.45
-1.63
-23.80
-33.28
-28.68
-13.61
4.98
20.21
29.43
36.09
48.15
74.02
117.73
176.87
242.65
301.55
338.98
344.02
312.80
249.53
165.15
74.25
-7.65
-67.00
-95.36
-91.39
-61.41
-17.80
24.45
52.58
60.25
49.79
31.04
16.62
16.44
33.76
64.31
98.55
125.96
138.67
133.32
110.60
73.46
26.01
-26.15
-75.30
-111.99
-127.63
-118.60
-89.50
-52.89
-24.84
-18.12
-36.75
-74.64
-119.11
-156.92
-179.58
-185.41
-178.10
-163.33
-145.88
-128.56
-112.99
-100.73
-93.77
-93.72
-100.18
-109.72
-116.36
-113.80
-98.50
-71.99
-40.72
-13.40
3.10
7.00
2.22
-3.58
-2.38
11.65
40.99
85.09
140.90
203.09
264.14
315.17
347.84
356.98
342.56
309.74
266.99
223.04
184.22
153.26
129.74
111.56
96.40
82.62
69.47
56.89
45.43
36.25
31.26
32.90
43.50
64.09
93.14
125.93
155.42
174.15
176.72
161.60
131.17
90.04
43.05
-5.85
-53.30
-95.54
-128.19
-147.49
-152.65
-147.19
-138.50
-134.97
-142.44
-162.20
-191.77
-227.77
-268.46
-314.09
-364.49
-415.95
-460.15
-486.33
-485.94
-456.92
-404.74
-339.39
-270.55
-204.01
-141.22
-82.12
-28.27
16.20
46.71
61.53
63.85
60.89
60.81
69.59
89.97
122.35
166.08
219.69
279.43
337.98
384.83
409.24
404.40
370.41
314.39
247.63
181.53
124.37
79.94
48.01
25.85
9.88
-3.13
-15.27
-27.20
-38.42
-47.92
-54.64
-57.47
-54.46
-42.32
-17.07
24.13
80.32
145.30
208.11
256.14
278.98
272.02
237.94
186.07
130.06
84.32
60.19
62.52
87.74
124.52
157.42
172.98
165.69
140.69
111.37
92.76
93.90
113.39
140.71
162.15
167.90
155.79
129.83
95.89
57.87
17.29
-23.99
-60.61
-83.83
-85.51
-63.92
-26.84
10.23
30.93
25.09
-7.62
-59.29
-118.33
-174.11
-219.15
-248.93
-261.24
-256.96
-241.83
-226.34
-222.39
-237.17
-267.82
-301.23
-320.10
-311.30
-273.49
-218.91
-167.92
-139.46
-143.15
-177.01
-231.92
-299.18
-373.14
-451.25
-531.20
-607.36
-669.92
-708.05
-714.31
-688.97
-641.61
-584.83
-529.74
-482.90
-445.56
-414.69
-385.45
-352.64
-313.43
-269.24
-221.12
-169.34
-113.61
-54.13
7.00
64.27
110.19
154.48
200.81
253.78
319.63
403.74
505.08
612.45
703.62
765.06
788.40
771.65
722.98
656.12
583.85
512.07
443.94
379.67
319.41
263.38
211.38
164.57
123.48
86.77
51.08
13.12
-29.33
-76.72
-129.15
-186.88
-248.02
-308.15
-360.10
-395.61
-406.97
-389.90
-345.70
-281.10
-205.79
-127.84
-52.27
19.75
88.23
154.22
219.07
283.22
346.04
405.59
458.65
498.98
519.70
513.84
478.79
418.01
338.51
248.61
156.02
67.53
-13.29
-83.48
-142.58
-190.34
-216.92
-214.28
-182.00
-129.86
-71.26
-26.23
3.22
19.30
24.49
20.04
6.61
-18.06
-56.85
-103.57
-151.21
-191.42
-219.92
-235.89
-240.36
-236.45
-228.02
-227.13
-234.14
-249.02
-271.14
-301.41
-340.14
-385.70
-435.50
-478.40
-506.35
-512.62
-497.01
-464.09
-422.38
-380.19
-342.60
-311.04
-284.21
-260.86
-238.79
-217.86
-198.08
-179.18
-159.91
-138.38
-113.32
-84.68
-54.33
-23.85
4.87
30.98
54.68
77.00
99.16
121.81
144.65
166.04
184.50
198.65
208.03
213.17
215.27
215.55
214.68
212.60
208.41
201.36
191.19
178.55
164.94
152.22
141.98
134.99
131.08
129.38
129.05
129.94
132.75
138.88
149.81
166.47
188.83
215.82
245.58
275.76
304.05
328.61
348.36
362.99
372.48
376.58
374.23
363.71
343.27
312.09
271.39
224.77
178.00
138.10
111.79
103.75
114.96
141.48
174.55
202.38
213.71
201.93
167.78
119.22
68.35
26.91
2.37
-3.44
6.61
27.35
53.30
79.38
100.72
112.56
110.93
94.18
64.21
26.43
-12.04
-44.93
-68.90
-84.21
-93.72
-101.23
-109.82
-120.74
-133.21
-144.97
-153.35
-156.52
-154.38
-148.62
-142.01
-136.78
-133.25
-129.32
-121.35
-106.00
-82.17
-51.88
-19.76
8.55
28.37
37.30
35.53
25.33
10.05
-6.84
-22.34
-34.19
-40.86
-41.53
-36.08
-25.37
-11.29
3.33
15.46
22.79
24.71
22.58
19.16
17.42
19.33
25.18
33.60
42.29
48.81
51.37
49.19
42.62
33.04
22.43
12.75
5.37
0.68
-1.93
-3.57
-5.21
-7.24
-9.34
-10.71
-10.48
-7.95
-2.68
5.03
13.86
21.49
24.92
21.97
12.17
-2.71
-18.87
-31.65
-37.32
-34.30
-23.51
-7.84
9.48
25.82
39.61
50.31
58.32
64.32
68.99
72.94
76.08
78.23
78.64
76.22
70.46
63.14
57.13
55.14
57.96
62.51
64.52
59.29
43.49
17.48
-12.21
-36.83
-48.62
-43.73
-25.22
2.79
35.30
67.37
96.02
123.47
152.35
183.49
214.82
239.12
253.98
260.37
261.14
260.51
266.01
281.92
307.78
338.97
365.30
384.32
398.52
412.18
398.72
341.28
236.91
100.73
-14.73
-98.16
-150.91
-178.08
-195.03
-211.18
-228.47
-245.42
-257.77
-260.84
-256.09
-242.85
-223.00
-202.18
-186.40
-177.47
-175.56
-180.55
-193.49
-219.45
-257.43
-301.33
-341.43
-365.98
-364.04
-331.27
-272.22
-199.21
-130.08
-78.12
-49.87
-44.83
-56.44
-74.79
-90.92
-99.34
-99.04
-93.59
-86.84
-81.92
-80.41
-81.81
-84.29
-86.07
-86.62
-87.07
-89.94
-96.80
-107.35
-119.12
-127.92
-129.30
-120.07
-99.53
-69.87
-35.64
-2.32
25.43
45.18
57.12
63.22
66.16
68.15
70.70
75.22
83.35
96.48
114.38
134.40
151.75
161.44
160.50
149.00
129.06
102.52
69.31
27.99
-21.51
-75.15
-124.23
-157.92
-167.81
-151.74
-114.71
-66.39
-16.92
26.57
61.22
87.22
105.59
116.45
118.55
110.04
90.21
60.60
24.99
-11.56
-44.45
-71.08
-91.65
-108.28
-123.42
-138.00
-150.33
-156.56
-152.43
-135.60
-107.43
-73.33
-41.32
-19.46
-12.95
-22.28
-42.84
-66.13
-82.30
-83.04
-63.99
-25.86
25.91
82.79
135.31
175.13
196.68
197.94
180.60
149.42
110.94
71.99
38.24
13.22
-2.03
-8.49
-8.40
-4.36
1.48
7.78
14.00
20.07
25.70
29.96
31.25
28.00
19.57
7.01
-7.08
-19.51
-27.75
-30.82
-29.25
-24.33
-17.24
-8.69
0.80
10.35
18.52
23.73
25.09
23.00
19.21
16.02
15.28
17.36
20.80
22.85
20.57
12.20
-1.85
-19.01
-35.61
-48.45
-56.25
-60.03
-62.33
-65.72
-71.42
-78.84
-86.17
-91.42
-93.49
-92.40
-88.99
-84.42
-79.93
-76.74
-76.02
-78.26
-82.62
-86.70
-87.01
-80.38
-65.51
-43.76
-18.63
5.65
25.82
40.47
49.88
55.05
56.78
55.39
51.06
44.38
36.63
29.39
23.91
20.52
18.55
16.77
13.96
9.61
4.14
-1.35
-5.59
-7.73
-7.71
-6.25
-4.45
-3.26
-2.97
-3.24
-3.36
-2.75
-1.20
1.01
3.43
5.74
7.85
9.92
12.16
14.70
17.64
21.08
25.20
30.17
35.97
42.24
48.18
52.71
54.74
53.58
49.08
41.79
32.84
23.68
15.80
10.37
8.02
8.71
11.76
16.07
20.34
23.46
24.76
24.25
22.54
20.67
19.61
19.75
20.42
19.85
15.59
5.43
-11.50
-34.01
-58.83
-81.55
-98.09
-105.98
-104.91
-96.40
-82.69
-65.76
-46.81
-26.47
-5.50
14.73
32.25
45.07
52.03
53.34
50.60
46.13
42.22
40.34
40.81
43.00
45.73
47.80
48.41
47.26
44.56
40.89
37.09
34.05
32.37
31.93
31.67
29.81
24.34
13.92
-1.57
-20.84
-41.68
-61.70
-79.14
-93.18
-103.79
-111.06
-114.42
-112.40
-103.03
-84.85
-57.96
-24.48
11.69
46.12
75.05
96.37
109.72
115.95
116.30
111.83
103.38
91.79
78.30
64.65
52.89
44.96
42.03
43.94
49.00
54.39
57.10
55.12
48.18
37.75
26.09
15.10
5.55
-2.99
-11.42
-20.20
-28.87
-36.22
-40.90
-42.19
-40.47
-37.05
-33.73
-32.12
-33.09
-36.49
-41.37
-46.43
-50.60
-53.51
-55.50
-57.29
-59.57
-62.47
-65.55
-68.06
-69.30
-69.01
-67.34
-64.72
-61.57
-58.17
-54.63
-51.07
-47.69
-44.76
-42.50
-40.86
-39.53
-38.08
-36.19
-33.88
-31.44
-29.16
-27.10
-24.95
-22.29
-18.98
-15.54
-13.03
-12.72
-15.25
-20.15
-25.80
-29.84
-30.16
-25.69
-16.95
-6.10
3.58
8.69
7.00
-1.36
-13.48
-24.33
-28.58
-22.76
-6.81
15.65
38.15
52.96
52.91
33.14
-7.13
-63.28
-125.62
-182.07
-222.57
-243.23
-247.75
-244.95
-243.52
-247.00
-251.88
-249.98
-233.21
-197.85
-146.19
-84.99
-22.72
33.02
76.59
104.37
114.48
106.97
84.39
51.85
16.80
-12.30
-27.88
-25.14
-3.74
31.94
74.09
113.87
144.47
163.32
172.49
177.20
183.00
193.30
208.01
224.01
236.60
241.35
235.74
219.95
196.79
170.81
147.00
129.59
121.06
121.61
129.17
139.69
147.60
146.76
131.86
100.00
52.23
-5.59
-63.35
-109.24
-133.30
-130.93
-104.64
-63.14
-18.12
19.81
44.26
54.08
52.18
43.11
31.03
18.80
8.31
1.13
-0.88
4.20
17.89
40.69
71.58
107.87
145.43
179.43
205.52
221.12
226.18
222.87
214.13
201.96
186.45
166.05
139.14
105.51
67.20
28.23
-6.61
-32.98
-47.77
-49.45
-38.35
-16.81
10.92
39.26
62.56
76.38
78.38
68.22
47.01
16.39
-21.85
-65.69
-112.48
-158.74
-200.21
-232.24
-250.47
-251.95
-236.29
-206.46
-168.60
-130.46
-98.93
-77.78
-66.70
-62.35
-60.63
-58.80
-56.48
-54.78
-54.75
-55.96
-56.49
-53.94
-47.01
-36.40
-24.46
-13.94
-6.66
-2.82
-1.21
-0.21
1.19
2.84
3.31
0.57
-7.10
-20.34
-38.17
-58.32
-77.85
-94.16
-105.69
-112.22
-114.61
-114.27
-112.60
-110.62
-108.89
-107.65
-107.09
-107.30
-108.16
-108.92
-108.19
-104.16
-95.39
-81.63
-64.17
-45.58
-28.63
-15.16
-5.39
2.13
9.58
18.81
30.49
44.03
57.99
70.75
81.01
87.89
90.97
90.42
87.10
82.62
79.02
78.19
81.17
87.61
95.81
103.24
107.24
105.80
97.97
84.02
65.36
44.34
23.89
6.92
-4.28
-8.64
-6.48
0.72
10.77
21.30
30.18
35.78
37.20
34.44
28.48
21.00
13.88
8.49
5.14
2.85
-0.18
-5.83
-15.19
-28.04
-42.76
-56.84
-67.70
-73.45
-73.45
-68.42
-60.07
-50.53
-41.52
-33.91
-27.58
-21.69
-15.28
-7.69
1.23
11.18
21.70
32.46
43.35
54.40
65.68
77.11
88.48
99.39
109.40
118.17
125.57
131.86
137.71
143.78
150.18
155.99
159.33
158.08
150.67
136.56
116.03
89.51
57.10
18.74
-25.14
-72.88
-121.21
-165.66
-201.26
-223.38
-228.15
-212.84
-176.14
-118.78
-44.08
41.99
131.49
215.79
287.03
339.54
371.04
383.16
380.97
371.33
360.30
350.93
342.12
329.46
307.59
272.96
226.03
172.24
121.19
84.14
70.37
83.60
119.93
168.48
214.86
246.18
255.30
242.34
212.85
174.11
131.87
89.40
48.51
11.31
-19.22
-40.41
-51.89
-56.61
-59.97
-67.35
-81.42
-100.94
-121.50
-137.83
-146.54
-147.84
-145.39
-145.16
-153.16
-173.19
-204.94
-243.03
-277.28
-294.82
-283.82
-237.97
-159.86
-61.34
39.84
125.97
185.34
215.23
221.05
212.23
197.45
181.71
166.36
151.06
136.09
123.06
114.04
109.94
109.40
109.07
105.33
96.23
82.41
66.67
52.66
42.81
37.25
33.71
28.59
18.69
2.59
-18.82
-42.88
-66.56
-88.00
-107.26
-126.36
-148.21
-175.18
-207.97
-245.32
-284.43
-322.14
-356.16
-385.76
-412.09
-437.89
-466.78
-502.05
-544.86
-592.53
-638.05
-671.28
-682.03
-663.89
-616.72
-546.57
-463.22
-376.15
-291.36
-210.47
-131.90
-53.04
28.11
112.27
198.67
284.89
366.51
437.23
490.01
519.38
523.53
505.05
469.99
425.60
377.94
330.90
286.42
245.52
208.88
176.64
147.70
119.46
88.46
51.84
8.78
-39.00
-88.22
-135.30
-178.30
-217.59
-255.53
-295.29
-339.80
-390.94
-449.16
-513.17
-579.46
-642.21
-693.96
-727.23
-736.91
-721.97
-685.75
-634.50
-575.01
-512.54
-450.03
-388.88
-329.98
-274.39
-223.04
-175.70
-130.33
-83.17
-30.36
29.89
95.69
161.08
216.82
252.77
260.99
238.67
190.08
126.14
61.78
11.56
-14.78
-14.65
8.11
46.42
93.72
145.86
200.00
252.23
295.40
319.80
316.48
281.20
216.75
131.29
34.75
-64.63
-161.38
-251.40
-329.92
-390.72
-427.77
-438.10
-423.93
-392.28
-352.42
-312.47
-277.21
-247.83
-223.04
-200.78
-179.23
-157.01
-133.07
-106.63
-77.48
-46.19
-14.02
17.80
48.46
78.23
108.29
140.18
175.02
212.94
253.15
294.17
334.65
373.94
412.31
450.99
491.95
537.61
589.99
649.43
713.25
775.15
826.14
857.16
862.25
840.84
797.79
741.33
679.71
618.59
560.29
504.81
451.68
401.21
354.32
311.61
272.37
234.53
195.66
154.35
111.03
67.77
27.40
-8.04
-38.41
-65.50
-92.35
-121.84
-155.42
-192.55
-231.24
-268.97
-304.15
-336.75
-368.26
-401.06
-437.71
-480.46
-530.76
-588.43
-650.73
-711.81
-763.36
-796.52
-804.76
-786.24
-744.35
-686.27
-620.10
-552.32
-486.49
-423.72
-363.85
-306.53
-251.45
-197.92
-144.64
-89.96
-32.80
26.83
87.52
147.32
204.46
258.31
309.73
361.00
415.32
475.70
543.36
616.09
687.55
748.25
788.37
801.19
785.68
746.82
693.36
634.38
576.34
522.00
471.34
423.56
378.39
336.35
297.82
262.13
227.47
191.76
153.87
114.35
75.13
38.60
6.28
-22.07
-48.34
-75.22
-104.93
-138.26
-174.56
-212.19
-249.67
-286.62
-324.11
-364.41
-410.52
-465.45
-531.28
-607.98
-692.09
-776.31
-850.49
-904.31
-930.54
-927.53
-899.62
-855.01
-802.44
-748.24
-695.21
-643.48
-592.47
-542.28
-493.95
-448.60
-406.34
-365.97
-325.57
-283.61
-239.80
-195.20
-151.89
-111.85
-76.25
-45.10
-17.50
7.72
31.32
53.17
72.26
87.15
96.66
100.48
99.39
95.07
89.56
84.60
81.10
79.04
77.66
76.07
73.79
71.13
69.17
69.37
72.99
80.45
91.16
103.60
115.98
126.99
136.43
145.29
155.40
168.54
185.62
206.14
228.34
249.87
268.92
285.06
299.62
315.33
335.52
363.05
399.23
442.85
489.92
534.16
568.68
588.17
591.07
580.68
564.37
550.92
547.28
555.97
574.31
595.89
613.15
620.13
614.08
595.77
568.69
537.59
506.88
479.27
455.04
431.97
406.56
375.65
338.16
295.96
253.04
213.67
180.30
152.67
128.39
104.58
79.72
53.94
28.42
3.87
-20.68
-47.74
-79.70
-116.56
-154.40
-185.94
-203.34
-202.17
-184.25
-157.67
-133.61
-121.62
-125.62
-142.67
-165.29
-185.49
-198.64
-205.05
-208.68
-214.14
-224.12
-238.25
-253.99
-268.61
-280.56
-290.38
-300.72
-315.20
-336.77
-367.14
-406.80
-455.30
-511.18
-570.92
-628.68
-677.10
-708.84
-718.49
-704.33
-668.92
-617.84
-557.43
-492.10
-424.13
-355.23
-287.42
-223.10
-163.89
-109.90
-59.21
-8.27
47.84
113.49
190.39
276.82
367.80
456.07
533.04
590.39
617.46
610.23
576.84
533.84
496.11
470.15
454.51
443.29
431.96
419.65
408.46
400.45
394.89
388.00
374.79
353.71
325.32
292.41
258.88
228.72
204.40
185.82
170.68
156.17
140.49
123.11
104.78
86.85
70.77
57.32
46.08
35.73
25.04
13.63
1.93
-8.87
-17.48
-22.81
-24.47
-23.04
-19.81
-16.25
-13.49
-12.21
-12.53
-14.21
-16.82
-19.97
-23.59
-27.95
-33.49
-40.63
-49.60
-60.25
-72.10
-84.46
-96.66
-108.38
-119.81
-131.54
-144.41
-159.00
-175.33
-192.75
-210.13
-226.35
-240.91
-254.24
-267.58
-282.62
-300.69
-322.21
-346.52
-372.26
-397.94
-422.68
-446.56
-470.48
-495.94
-524.73
-558.73
-599.29
-646.22
-696.54
-744.02
-780.07
-796.16
-786.96
-752.42
-697.89
-631.95
-563.18
-497.47
-437.23
-382.30
-331.79
-285.39
-243.52
-206.58
-174.09
-144.54
-116.09
-87.45
-58.58
-30.59
-5.26
15.97
32.62
45.31
55.47
64.62
73.75
82.97
91.61
98.66
103.32
105.41
105.46
104.40
103.26
102.69
102.86
103.46
103.94
103.92
103.30
102.32
101.41
101.01
101.35
102.38
103.82
105.27
106.38
106.96
106.94
106.38
105.41
104.13
102.58
100.77
98.68
96.31
93.65
90.72
87.56
84.24
80.81
77.38
74.02
70.82
67.78
64.91
62.17
59.53
56.99
54.55
52.29
50.27
48.52
47.07
45.91
45.01
44.39
44.06
44.12
44.69
45.85
47.63
49.96
52.72
55.75
58.98
62.45
66.32
70.87
76.31
82.73
89.97
97.71
105.50
113.02
120.21
127.37
135.02
143.71
153.75
165.03
177.04
189.12
200.79
212.09
223.67
236.59
252.00
270.60
292.51
317.08
343.38
370.44
397.62
424.91
452.97
483.07
516.83
555.69
599.95
647.88
695.00
734.58
759.22
763.08
744.06
704.56
650.58
589.44
527.20
467.01
408.95
351.31
292.21
230.82
167.48
103.01
37.63
-29.38
-99.49
-174.02
-252.95
-334.94
-417.79
-499.97
-581.49
-663.45
-746.19
-826.92
-898.86
-952.32
-978.20
-971.36
-932.81
-868.64
-786.87
-694.62
-597.28
-500.11
-410.21
-336.53
-286.85
-263.45
-260.54
-265.60
-264.67
-248.57
-216.51
-175.13
-134.14
-100.90
-77.61
-61.97
-50.21
-40.06
-31.79
-26.98
-26.38
-28.61
-30.47
-28.38
-20.34
-6.87
9.12
23.86
34.68
41.25
45.88
52.36
64.09
82.33
105.44
129.69
151.01
167.03
178.22
187.69
199.69
217.63
242.67
273.35
306.26
337.18
362.26
378.80
385.61
383.42
374.72
363.28
352.78
345.03
338.30
327.24
304.91
266.43
212.68
151.67
96.65
61.12
53.18
71.93
107.85
146.98
176.64
190.04
187.36
173.50
154.21
132.94
110.23
85.17
57.86
30.78
8.26
-5.61
-9.23
-4.46
4.05
11.17
13.51
10.60
4.57
-1.18
-3.91
-2.71
1.36
5.95
8.63
7.94
3.83
-2.45
-9.08
-14.47
-17.93
-19.83
-21.35
-23.87
-28.26
-34.49
-41.62
-48.17
-52.81
-54.86
-54.53
-52.75
-50.70
-49.34
-49.19
-50.48
-53.23
-57.23
-61.74
-65.22
-65.60
-60.94
-50.43
-34.92
-16.78
1.13
16.63
28.91
38.43
46.21
53.02
58.94
63.66
67.06
69.70
72.80
77.70
85.12
94.60
104.60
112.99
117.93
118.67
115.87
111.26
106.86
104.06
103.17
103.42
103.58
102.64
100.18
96.34
91.48
85.84
79.42
72.18
64.26
56.19
48.71
42.41
37.40
33.20
28.91
23.62
16.80
8.49
-0.74
-10.08
-18.70
-25.95
-31.51
-35.36
-37.72
-38.94
-39.47
-39.68
-39.84
-40.01
-40.03
-39.57
-38.28
-35.93
-32.56
-28.35
-23.43
-17.55
-10.18
-0.86
10.26
22.07
32.65
40.11
43.57
43.69
42.45
42.11
44.11
48.30
53.02
55.82
54.33
46.83
32.47
11.33
-15.55
-46.14
-77.68
-107.35
-133.37
-155.77
-176.73
-199.84
-228.66
-265.00
-307.63
-351.90
-390.62
-415.96
-421.79
-405.62
-369.32
-318.34
-259.82
-200.39
-144.56
-94.23
-49.30
-8.78
28.39
62.95
95.41
126.01
154.59
180.21
201.13
215.18
220.50
216.33
203.39
183.77
160.45
136.65
115.26
98.38
87.03
81.06
79.18
79.39
79.59
78.26
74.97
70.34
65.56
61.74
59.36
58.17
57.45
56.32
54.05
50.15
44.48
37.27
29.30
21.76
15.98
12.98
12.98
15.17
17.85
18.96
16.76
10.49
0.65
-11.14
-22.77
-32.48
-39.58
-44.74
-49.58
-55.70
-63.70
-72.73
-80.75
-85.57
-85.87
-81.66
-74.09
-64.76
-55.04
-45.78
-37.50
-30.60
-25.52
-22.57
-21.60
-21.98
-22.67
-22.79
-21.93
-20.36
-18.85
-18.30
-19.36
-22.21
-26.55
-31.68
-36.67
-40.58
-42.66
-42.49
-40.17
-36.20
-31.42
-26.74
-22.86
-20.17
-18.68
-18.15
-18.19
-18.43
-18.58
-18.45
-17.92
-16.85
-15.05
-12.35
-8.68
-4.17
0.80
5.76
10.22
13.88
16.66
18.62
19.76
19.96
19.03
16.89
13.79
10.38
7.53
6.03
6.27
8.09
10.82
13.54
15.49
16.30
16.04
15.14
14.12
13.35
13.02
13.16
13.75
14.84
16.46
18.55
20.78
22.63
23.57
23.36
22.25
20.94
20.29
20.90
22.78
25.34
27.53
28.26
26.74
22.63
16.04
7.35
-2.85
-13.79
-24.63
-34.50
-42.64
-48.58
-52.12
-53.35
-52.49
-49.89
-46.01
-41.50
-37.12
-33.55
-31.09
-29.53
-28.23
-26.50
-24.00
-20.92
-17.91
-15.63
-14.38
-13.92
-13.62
-12.84
-11.28
-9.10
-6.75
-4.67
-3.09
-1.90
-0.77
0.60
2.33
4.26
6.00
7.10
7.19
6.18
4.29
2.06
0.23
-0.48
0.39
2.87
6.51
10.53
14.07
16.40
17.19
16.41
14.34
11.40
8.07
4.77
1.81
-0.62
-2.52
-4.04
-5.36
-6.60
-7.70
-8.55
-9.06
-9.29
-9.39
-9.50
-9.62
-9.58
-9.20
-8.39
-7.27
-6.09
-5.10
-4.38
-3.90
-3.57
-3.40
-3.50
-4.01
-4.94
-5.89
-6.34
-5.86
-4.33
-1.98
0.72
3.27
5.24
6.37
6.76
6.67
6.36
6.02
5.71
5.44
5.20
4.99
4.80
5.06
6.07
7.79
9.84
11.66
12.84
13.34
13.37
13.23
14.38
17.71
23.24
29.98
36.62
42.30
46.96
51.11
55.31
62.31
73.77
89.48
107.44
125.08
140.75
154.25
166.12
176.80
190.18
208.80
232.89
260.21
287.34
311.44
330.97
345.42
354.99
365.80
383.39
410.29
444.39
480.00
511.05
533.67
547.46
522.13
442.51
311.48
150.99
-10.35
-152.23
-267.32
-356.87
-424.83
-474.81
-504.51
-512.80
-502.02
-478.41
-449.74
-421.93
-397.56
-376.63
-358.26
-337.75
-312.17
-281.65
-249.01
-218.72
-193.86
-175.04
-160.98
-150.06
-138.56
-124.29
-107.36
-89.98
-75.17
-64.79
-58.95
-56.35
-55.43
-53.54
-48.89
-41.09
-31.28
-21.72
-14.99
-13.56
-17.63
-27.45
-41.85
-58.74
-75.72
-90.85
-103.20
-112.74
-119.85
-124.82
-127.64
-127.70
-124.27
-117.01
-106.35
-93.30
-79.04
-64.47
-50.10
-36.31
-23.31
-11.20
-0.03
10.32
20.07
29.43
38.39
46.61
53.37
57.92
59.78
58.76
54.92
48.45
39.50
28.33
15.44
1.74
-11.45
-22.68
-30.76
-35.13
-36.02
-34.25
-30.92
-26.92
-22.81
-18.85
-15.18
-12.09
-9.95
-9.09
-9.59
-11.12
-13.07
-14.81
-15.92
-16.33
-16.14
-15.58
-14.75
-13.64
-12.26
-10.67
-9.07
-7.70
-6.83
-6.59
-7.03
-8.16
-9.99
-12.51
-15.67
-19.32
-23.10
-26.61
-29.43
-31.30
-32.22
-32.41
-32.22
-32.01
-32.01
-32.29
-32.76
-33.23
-33.45
-33.20
-32.26
-30.58
-28.24
-25.47
-22.56
-19.71
-16.97
-14.26
-11.55
-8.85
-6.35
-4.16
-2.27
-0.40
1.83
4.67
7.98
11.23
13.75
15.07
15.19
14.50
13.58
12.84
12.39
12.09
11.77
11.35
10.93
10.67
10.58
10.55
10.33
9.76
8.82
7.75
6.90
6.59
6.96
7.92
9.18
10.38
11.24
11.61
11.48
10.91
9.99
8.79
7.44
6.09
4.95
4.15
3.69
3.37
2.95
2.21
1.20
0.15
-0.58
-0.78
-0.43
0.27
1.05
1.75
2.39
3.05
3.85
4.75
5.65
6.31
6.53
6.14
5.07
3.37
1.25
-0.97
-2.88
-4.19
-4.82
-4.97
-4.96
-5.12
-5.63
-6.46
-7.47
-8.53
-9.61
-10.78
-12.12
-13.65
-15.32
-17.01
-18.63
-20.14
-21.61
-23.14
-24.85
-26.88
-29.39
-32.51
-36.32
-40.80
-45.73
-50.79
-55.64
-60.16
-64.53
-69.22
-74.75
-81.52
-89.71
-99.40
-110.97
-125.04
-142.13
-162.25
-184.70
-208.34
-232.17
-255.43
-277.14
-295.49
-307.33
-308.75
-296.67
-270.57
-233.23
-189.83
-145.88
-104.93
-67.54
-31.91
4.53
43.58
85.66
130.25
176.52
223.68
270.54
315.18
354.91
386.83
409.01
421.34
425.62
424.55
420.24
413.04
401.42
382.91
355.68
319.67
276.77
230.04
182.27
135.40
90.68
49.36
13.07
-16.40
-38.09
-52.83
-63.39
-73.68
-87.03
-104.73
-125.30
-145.18
-160.24
-167.66
-167.25
-161.64
-155.26
-152.23
-154.38
-160.11
-164.95
-163.43
-151.55
-128.59
-97.08
-61.26
-25.04
9.26
41.10
70.78
98.42
123.56
145.52
164.06
179.72
193.66
207.11
220.87
235.05
248.85
260.85
269.20
272.22
269.03
260.10
247.30
233.35
220.89
211.40
204.63
198.63
190.36
176.65
155.29
125.84
90.25
52.42
17.01
-12.17
-33.79
-49.49
-63.06
-78.81
-99.99
-127.85
-161.59
-198.80
-235.89
-268.52
-292.22
-303.38
-300.36
-284.23
-258.41
-227.35
-194.90
-163.03
-131.95
-101.13
-70.87
-43.05
-20.94
-7.71
-4.75
-10.75
-21.81
-32.46
-37.00
-30.82
-11.90
18.21
54.07
87.04
107.15
106.00
79.55
30.19
-33.38
-98.39
-151.78
-183.99
-191.40
-176.45
-145.74
-107.44
-68.97
-35.71
-10.91
4.01
9.06
5.57
-3.71
-14.61
-22.61
-24.21
-18.28
-6.72
6.26
15.80
18.29
13.21
3.66
-4.32
-3.57
12.02
45.38
95.32
156.61
221.47
281.64
330.40
363.68
380.12
380.34
365.86
338.67
301.38
257.93
214.00
176.59
152.46
146.11
158.02
184.17
217.19
248.76
272.04
283.49
282.99
272.87
256.09
235.03
210.68
183.10
152.32
118.83
83.73
48.43
14.52
-16.35
-42.42
-62.38
-76.35
-86.56
-96.87
-110.87
-129.41
-149.00
-162.71
-163.37
-147.58
-118.15
-83.34
-53.29
-35.62
-32.76
-42.22
-59.32
-80.34
-104.11
-131.54
-163.79
-200.54
-239.37
-276.84
-310.26
-339.14
-365.44
-392.86
-425.39
-465.75
-514.47
-569.20
-624.85
-674.44
-710.68
-727.92
-723.68
-699.20
-658.75
-607.72
-550.82
-491.08
-430.05
-368.85
-308.99
-252.52
-201.30
-156.02
-115.86
-78.87
-43.06
-7.53
27.14
59.12
86.37
107.61
123.07
134.34
143.75
153.34
163.93
174.81
184.16
190.15
192.06
190.96
189.31
189.76
193.75
200.64
207.94
212.51
212.08
206.43
197.45
188.20
181.48
178.51
178.39
178.55
175.79
167.53
152.82
132.57
109.29
86.30
67.03
54.31
49.88
53.80
63.80
75.18
81.50
76.54
57.03
24.68
-13.57
-47.72
-68.42
-70.49
-54.39
-25.00
11.23
48.92
84.78
116.74
142.46
158.81
162.76
153.27
132.79
107.06
83.25
67.51
62.76
68.11
79.48
90.93
96.00
88.88
65.56
25.29
-28.04
-85.80
-136.08
-166.86
-169.95
-144.06
-95.27
-34.74
25.63
77.37
117.64
148.61
174.71
199.49
223.63
244.95
259.74
264.55
257.37
237.77
206.40
164.39
113.21
55.72
-2.98
-55.61
-94.59
-115.20
-118.14
-110.11
-101.18
-100.20
-110.47
-128.20
-144.65
-150.97
-142.95
-123.26
-99.78
-81.22
-72.49
-72.18
-73.52
-68.10
-50.25
-19.92
17.28
52.94
79.86
94.94
99.51
97.01
90.13
79.41
64.33
45.78
27.49
14.80
11.22
15.17
19.75
16.23
-0.70
-29.11
-60.14
-82.48
-87.98
-75.13
-48.43
-14.73
20.56
54.92
87.06
114.36
131.56
132.31
112.45
73.11
21.23
-32.50
-77.24
-105.10
-112.56
-100.24
-71.91
-33.50
7.33
41.75
61.21
59.75
36.47
-3.36
-49.54
-90.25
-116.26
-123.96
-115.85
-98.36
-78.34
-60.06
-44.10
-28.40
-10.50
10.58
33.51
55.07
71.19
78.16
73.58
57.15
31.37
1.55
-24.95
-40.72
-41.02
-26.21
-2.38
20.49
32.52
27.88
6.98
-24.60
-59.36
-91.42
-118.36
-140.32
-157.75
-169.33
-171.90
-162.54
-141.14
-111.92
-82.46
-60.69
-51.50
-54.78
-65.62
-76.50
-80.52
-73.86
-56.79
-32.81
-6.34
19.50
43.88
67.76
92.13
116.40
138.01
153.51
160.36
158.31
149.42
136.87
123.47
110.71
98.98
88.48
80.15
75.74
76.90
83.83
94.18
103.40
106.19
98.74
80.77
56.21
31.99
15.59
12.25
23.04
44.63
70.40
92.20
102.24
94.76
67.46
22.63
-32.90
-89.36
-136.84
-168.52
-182.61
-182.19
-173.10
-160.96
-149.01
-137.77
-126.32
-114.15
-102.27
-92.92
-88.09
-88.04
-90.75
-92.77
-91.01
-84.42
-74.21
-62.79
-51.62
-39.61
-23.50
-0.14
30.63
64.56
94.27
112.62
116.26
107.10
91.06
74.71
62.08
53.51
46.70
39.16
30.15
21.07
14.40
12.19
15.01
21.99
31.41
41.54
51.32
61.09
72.70
88.93
111.81
140.68
171.23
196.18
207.81
200.84
174.34
131.20
76.19
14.05
-50.85
-113.15
-165.30
-198.55
-206.38
-188.61
-153.32
-114.40
-85.74
-75.33
-82.48
-99.65
-117.36
-128.96
-132.75
-130.84
-126.06
-119.32
-109.13
-93.14
-70.42
-42.88
-14.86
8.89
25.49
35.19
40.98
46.58
54.33
64.16
73.95
80.87
82.60
77.72
65.49
45.78
19.57
-10.11
-38.09
-58.48
-67.15
-63.95
-53.07
-40.89
-32.88
-31.14
-34.05
-37.85
-39.07
-35.97
-28.71
-18.41
-6.27
6.59
18.82
28.54
33.66
32.64
25.36
13.47
-0.20
-12.71
-22.38
-29.41
-35.60
-43.15
-53.17
-64.58
-74.05
-77.14
-70.17
-52.12
-25.46
4.34
30.62
47.86
53.47
48.45
36.64
23.04
12.19
6.91
7.96
14.41
24.40
35.75
46.42
54.61
59.03
59.06
55.16
48.91
42.62
38.49
37.48
38.62
39.12
35.61
25.71
9.44
-10.51
-29.65
-43.39
-48.74
-45.15
-34.27
-19.13
-2.98
11.41
22.06
27.83
28.40
24.34
17.14
9.01
2.41
-0.48
1.67
9.17
21.35
36.91
54.26
71.69
87.31
99.05
104.77
102.76
92.29
73.99
49.91
22.95
-3.84
-27.78
-46.68
-58.75
-62.49
-57.07
-43.02
-22.91
-1.36
15.90
23.97
20.66
7.60
-10.27
-26.48
-35.46
-34.48
-24.30
-8.40
8.68
23.20
33.13
38.31
39.61
37.99
33.66
25.93
13.73
-3.37
-24.14
-45.35
-62.51
-71.41
-69.79
-58.19
-39.46
-17.42
4.62
24.51
40.97
52.98
59.46
59.94
55.49
49.01
43.96
42.44
44.14
46.67
47.22
44.12
37.25
27.32
14.79
-0.09
-16.33
-30.94
-38.99
-35.51
-18.46
9.12
39.49
63.22
73.25
67.89
51.02
29.73
10.92
-1.49
-7.42
-10.01
-13.62
-21.62
-34.94
-51.83
-68.76
-82.00
-89.09
-89.65
-85.24
-78.45
-71.74
-66.63
-63.47
-61.76
-60.74
-59.86
-58.81
-57.38
-55.21
-51.79
-46.77
-40.36
-33.50
-27.53
-23.61
-22.05
-22.08
-22.14
-20.74
-17.25
-12.30
-7.43
-4.33
-3.91
-5.69
-7.83
-7.80
-3.48
5.81
18.78
32.38
42.88
47.14
43.94
34.54
22.40
12.11
7.79
11.71
23.48
40.28
58.02
72.82
82.43
86.76
87.43
86.62
85.90
85.48
84.43
81.43
75.67
67.35
57.64
48.11
40.05
34.01
29.69
26.11
21.95
15.84
6.65
-6.46
-23.91
-45.32
-69.01
-91.71
-108.99
-116.46
-111.58
-95.12
-71.35
-46.69
-27.30
-16.78
-15.11
-19.19
-24.63
-27.65
-26.22
-20.15
-10.30
2.12
15.89
29.53
41.25
49.14
51.87
49.34
42.83
34.47
26.31
19.69
15.01
12.48
12.54
15.77
22.36
31.29
40.40
47.26
50.67
51.53
52.59
56.89
65.84
78.19
90.44
98.45
99.38
92.86
80.92
66.95
54.27
44.83
38.70
34.13
28.39
19.01
4.94
-12.86
-31.92
-49.58
-64.26
-75.91
-85.43
-93.54
-100.12
-104.94
-108.95
-114.82
-125.67
-142.47
-161.97
-177.17
-180.67
-169.19
-146.30
-121.28
-104.28
-100.68
-108.07
-117.70
-119.47
-107.40
-82.33
-50.69
-20.60
2.11
15.77
22.20
24.48
24.96
24.45
22.87
20.49
18.70
19.77
25.76
37.23
52.56
68.43
81.07
87.79
88.09
83.68
77.75
73.62
73.60
78.46
87.45
98.87
110.71
121.06
128.35
131.50
130.13
124.76
116.72
107.68
98.82
90.36
81.71
72.34
62.68
54.37
49.35
48.64
51.69
56.64
61.39
64.57
65.40
62.63
53.50
34.47
3.60
-36.62
-78.50
-111.73
-128.21
-126.52
-112.94
-98.23
-91.86
-97.27
-110.82
-124.77
-132.21
-130.59
-122.28
-112.02
-103.59
-97.69
-92.21
-84.31
-72.71
-58.48
-44.40
-33.33
-26.61
-23.45
-21.52
-18.29
-12.23
-3.44
6.38
14.76
19.36
19.00
14.05
6.43
-1.21
-6.46
-8.16
-6.79
-4.09
-2.01
-1.51
-2.02
-1.78
1.16
7.60
16.56
25.51
31.42
32.00
26.56
16.15
2.81
-11.24
-24.28
-35.15
-43.00
-46.94
-45.95
-39.05
-25.43
-4.42
24.53
61.46
104.89
150.85
192.68
222.21
232.36
219.93
187.08
140.53
88.89
39.67
-2.58
-36.03
-60.20
-74.56
-78.29
-71.34
-55.47
-34.41
-12.53
6.99
23.18
36.59
47.80
56.09
59.39
55.59
44.07
26.52
6.45
-12.31
-27.56
-39.34
-49.40
-59.96
-72.22
-85.88
-99.33
-109.95
-114.96
-112.76
-103.29
-88.08
-69.55
-49.81
-30.61
-13.52
0.28
9.94
14.21
12.19
3.86
-9.31
-23.85
-36.44
-45.39
-50.54
-52.40
-52.20
-50.53
-47.08
-40.34
-26.99
-2.77
31.41
69.97
110.06
147.47
176.61
191.43
187.43
164.48
125.12
73.52
15.22
-42.84
-92.72
-123.72
-128.82
-116.29
-94.78
-71.50
-49.51
-31.76
-18.54
-8.28
1.39
11.73
22.57
33.84
44.15
51.25
53.30
50.46
44.53
38.20
33.67
31.77
32.44
33.36
30.88
21.86
5.96
-14.54
-35.85
-54.55
-68.34
-75.27
-74.05
-63.89
-44.96
-19.16
9.08
33.64
48.97
53.22
50.09
47.01
51.35
65.97
87.04
104.78
107.41
86.65
42.10
-17.52
-77.04
-120.08
-134.75
-117.57
-74.27
-17.71
36.35
73.90
86.17
71.23
33.85
-15.96
-65.40
-102.08
-117.33
-108.80
-81.23
-44.76
-11.03
11.27
19.27
15.94
7.46
-0.53
-5.65
-9.09
-13.67
-21.29
-31.37
-41.27
-48.13
-50.91
-50.99
-51.15
-53.55
-58.08
-62.16
-62.13
-55.53
-42.79
-27.31
-14.13
-7.50
-8.88
-16.06
-24.04
-26.90
-20.27
-3.25
21.07
46.50
65.84
73.46
67.33
49.86
27.11
6.70
-4.93
-4.76
5.57
20.61
33.42
38.52
34.09
22.50
8.66
-2.80
-9.81
-13.40
-16.44
-21.84
-31.03
-43.49
-57.43
-70.69
-81.23
-87.00
-85.90
-76.15
-57.69
-33.58
-10.07
5.39
7.60
-3.45
-22.17
-40.00
-49.93
-50.08
-44.35
-39.45
-40.41
-47.10
-53.69
-51.76
-35.12
-3.02
39.47
83.91
122.04
148.51
161.59
162.33
152.92
135.58
112.20
84.67
55.28
26.87
2.35
-15.93
-26.76
-30.27
-27.75
-21.15
-12.68
-4.45
1.77
4.84
4.53
1.55
-2.76
-7.06
-10.66
-13.78
-17.32
-22.18
-28.65
-36.09
-43.13
-48.28
-50.52
-49.78
-46.93
-43.43
-40.64
-39.26
-38.99
-38.65
-36.63
-31.51
-22.56
-10.00
4.89
19.93
32.36
39.47
39.47
32.40
20.53
8.05
-0.13
-0.03
10.05
28.88
52.71
76.56
95.67
106.82
109.05
103.67
93.65
82.46
72.78
65.49
59.49
52.45
42.14
27.72
10.30
-7.66
-23.54
-35.63
-43.66
-48.35
-50.56
-50.70
-48.54
-43.82
-36.87
-28.94
-21.83
-17.22
-16.00
-18.01
-22.27
-27.38
-31.91
-34.57
-34.31
-30.51
-23.29
-13.81
-4.23
2.81
5.08
1.49
-7.47
-19.85
-32.85
-43.46
-49.07
-47.79
-38.72
-22.14
0.36
26.04
51.43
73.01
87.98
94.73
93.05
84.00
69.62
52.61
35.77
21.59
11.70
6.57
5.45
6.72
8.47
9.08
7.76
4.72
1.04
-1.72
-1.92
1.59
9.23
20.40
33.55
46.49
56.85
62.73
63.12
58.15
48.83
36.66
23.12
9.45
-3.33
-14.37
-22.85
-28.27
-30.67
-30.80
-30.07
-30.01
-31.69
-35.24
-39.80
-43.79
-45.47
-43.46
-37.22
-27.21
-14.80
-2.02
8.89
16.04
18.31
15.59
8.89
0.05
-8.61
-14.90
-17.25
-15.24
-9.69
-2.49
3.94
7.43
6.75
1.99
-5.49
-13.53
-19.89
-22.96
-22.15
-18.03
-12.04
-6.03
-1.67
-0.04
-1.39
-5.14
-10.11
-14.99
-18.72
-20.91
-21.92
-22.63
-23.93
-26.25
-29.29
-32.19
-33.96
-33.95
-32.09
-28.82
-24.69
-20.08
-15.13
-9.74
-3.71
3.21
11.35
20.82
31.29
41.67
50.16
54.79
54.23
48.48
39.03
28.33
18.79
11.99
8.36
7.39
8.26
10.36
13.37
17.15
21.36
25.34
28.23
29.28
28.22
25.46
22.00
19.14
17.94
18.89
21.62
25.05
27.75
28.57
27.08
23.77
19.85
16.71
15.29
15.64
16.91
17.78
17.06
14.23
9.62
4.18
-0.93
-4.83
-7.09
-7.74
-7.10
-5.56
-3.43
-0.99
1.50
3.77
5.45
6.21
5.90
4.61
2.80
1.06
-0.08
-0.43
-0.23
0.02
0.01
-0.07
0.54
2.92
7.87
15.49
25.02
35.09
44.07
50.61
53.85
53.60
50.16
44.19
36.42
27.53
18.12
8.83
0.45
-6.13
-10.17
-11.50
-10.82
-9.64
-9.74
-12.51
-18.26
-26.26
-35.04
-43.12
-49.58
-54.22
-57.38
-59.53
-60.93
-61.63
-61.59
-60.94
-60.00
-59.15
-58.54
-57.80
-56.10
-52.41
-46.03
-37.01
-26.32
-15.56
-6.31
0.39
4.40
6.37
7.26
7.94
8.87
10.13
11.63
13.18
14.60
15.62
15.91
15.13
13.11
10.00
6.28
2.62
-0.37
-2.31
-3.18
-3.27
-3.04
-2.95
-3.41
-4.69
-6.86
-9.85
-13.34
-16.81
-19.68
-21.37
-21.54
-20.26
-18.06
-15.82
-14.55
-15.01
-17.44
-21.46
-26.18
-30.54
-33.53
-34.48
-33.07
-29.30
-23.37
-15.57
-6.24
4.27
15.55
27.14
38.54
49.15
58.33
65.47
70.17
72.40
72.54
71.33
69.58
67.90
66.54
65.35
64.00
62.02
58.98
54.60
48.85
42.17
35.52
30.23
27.60
28.36
32.24
38.06
44.11
48.85
51.55
52.45
52.48
52.63
53.32
54.23
54.60
53.68
51.34
48.13
45.02
42.91
42.16
42.47
43.14
43.47
43.06
41.85
39.97
37.43
34.07
29.62
23.90
17.08
9.68
2.42
-4.01
-9.26
-13.54
-17.59
-22.50
-29.35
-38.82
-50.92
-64.96
-79.69
-93.58
-105.19
-113.45
-118.02
-119.31
-118.42
-116.78
-115.68
-115.84
-117.24
-119.24
-120.95
-121.61
-120.81
-118.51
-114.89
-110.30
-105.12
-99.82
-94.92
-90.87
-87.87
-85.85
-84.40
-82.94
-80.91
-77.86
-73.56
-68.07
-61.67
-54.86
-48.13
-41.79
-35.81
-29.86
-23.50
-16.38
-8.47
-0.04
8.45
16.59
24.08
30.84
36.85
42.14
46.73
50.66
54.04
56.97
59.48
61.44
62.62
62.73
61.58
59.19
55.80
51.84
47.75
43.93
40.65
37.99
35.87
34.11
32.50
30.88
29.19
27.46
25.79
24.24
22.81
21.51
20.34
19.38
18.70
18.35
18.25
18.16
17.78
16.88
15.43
13.65
11.88
10.48
9.65
9.36
9.42
9.58
9.68
9.70
9.80
10.15
10.86
11.88
13.02
14.01
14.60
14.64
14.14
13.21
12.08
11.00
10.16
9.62
9.23
8.72
7.79
6.28
4.40
2.67
1.83
2.51
5.03
9.20
14.41
19.72
24.15
26.87
27.40
25.78
22.57
18.80
15.73
14.44
15.53
18.84
23.59
28.66
32.98
35.89
37.21
37.17
36.19
34.57
32.44
29.74
26.41
22.51
18.41
14.59
11.63
9.98
9.82
11.08
13.36
16.00
18.19
19.19
18.58
16.56
13.97
11.97
11.45
12.50
14.32
15.69
15.74
14.45
12.58
10.95
9.62
7.57
3.14
-5.06
-17.30
-32.90
-51.20
-72.70
-99.29
-133.14
-174.95
-222.63
-271.59
-316.59
-353.56
-380.61
-397.38
-403.61
-398.04
-378.80
-345.24
-299.86
-248.52
-198.54
-155.44
-120.11
-88.36
-53.20
-8.84
45.73
105.28
159.99
199.39
217.07
213.62
196.58
177.10
165.08
165.12
175.22
188.60
197.38
196.06
183.41
162.33
137.81
115.09
98.28
89.77
90.37
99.29
114.23
131.75
147.95
159.52
164.80
163.98
158.62
150.69
141.51
131.14
118.46
101.85
80.34
54.41
26.40
-0.08
-21.04
-33.32
-35.54
-28.48
-15.08
0.26
12.74
18.41
15.10
2.92
-15.96
-38.03
-59.43
-76.90
-88.54
-94.13
-94.90
-92.88
-89.96
-87.01
-83.41
-77.45
-67.29
-52.25
-33.45
-13.47
4.85
19.75
31.33
41.13
50.91
61.17
70.49
76.15
75.67
68.50
56.84
44.96
37.40
36.94
43.42
54.06
64.85
72.34
74.84
72.39
66.07
57.08
46.41
34.95
23.76
14.01
6.44
0.78
-4.43
-11.37
-21.92
-36.70
-54.67
-73.37
-89.56
-100.03
-102.24
-94.89
-78.28
-54.36
-26.35
1.95
26.95
45.92
57.19
60.10
54.81
42.30
24.48
4.21
-15.05
-30.02
-38.60
-40.53
-37.38
-31.70
-25.79
-20.70
-15.88
-9.76
-1.04
10.06
21.32
29.19
30.42
23.81
11.10
-3.58
-15.40
-20.69
-18.17
-8.85
4.90
20.29
34.42
44.28
46.80
39.84
23.52
1.23
-20.88
-36.09
-40.11
-32.99
-18.95
-3.88
7.72
14.56
18.26
21.39
25.44
30.06
33.94
36.66
39.85
46.87
61.06
83.53
112.03
141.42
165.60
180.19
184.43
181.64
177.88
179.39
189.99
209.43
233.54
255.78
269.51
269.90
255.13
227.11
191.32
155.81
129.00
116.75
119.99
133.85
149.43
157.39
151.68
131.69
101.59
67.82
36.03
9.49
-10.72
-24.49
-31.64
-31.73
-25.01
-13.23
0.26
11.69
18.30
19.51
16.97
13.27
10.33
7.95
3.52
-7.08
-27.62
-59.88
-102.63
-152.03
-203.21
-252.31
-297.82
-340.40
-381.36
-420.73
-456.41
-484.74
-502.17
-507.12
-500.37
-484.00
-459.82
-428.27
-389.31
-344.53
-298.63
-258.71
-231.05
-217.43
-213.20
-209.07
-195.95
-170.17
-135.97
-103.77
-85.24
-87.74
-110.71
-146.01
-181.61
-206.32
-213.50
-202.19
-175.95
-140.41
-101.02
-61.69
-24.77
8.34
36.51
58.55
73.62
82.09
85.97
88.71
94.10
104.58
119.98
137.39
152.47
161.33
162.64
158.24
152.42
149.85
153.47
163.20
176.18
188.15
195.31
195.82
190.32
181.39
172.38
166.06
163.60
164.33
166.27
166.99
164.49
157.62
146.06
129.96
109.69
85.87
59.54
32.40
6.65
-15.50
-32.41
-43.54
-49.58
-52.23
-53.66
-55.92
-60.33
-67.25
-75.94
-84.94
-92.63
-97.85
-100.35
-100.81
-100.65
-101.52
-104.89
-111.69
-122.01
-135.13
-149.52
-163.14
-173.89
-180.11
-181.05
-176.84
-168.32
-156.63
-142.90
-128.19
-113.53
-99.91
-88.07
-78.16
-69.64
-61.44
-52.45
-41.94
-29.70
-15.74
0.07
18.06
38.48
61.12
85.14
109.58
133.77
157.29
179.07
196.20
203.59
195.42
168.06
123.22
69.21
19.33
-12.47
-16.72
8.07
54.75
110.19
159.51
190.12
194.25
169.82
120.12
52.89
-21.03
-89.50
-141.35
-169.11
-171.08
-152.02
-121.72
-91.61
-70.95
-63.66
-67.20
-73.93
-74.51
-61.83
-34.13
4.28
44.99
79.09
101.01
110.63
112.71
113.96
119.61
131.00
145.33
157.47
162.82
159.41
148.46
132.97
115.72
97.64
77.63
54.06
26.59
-2.99
-31.63
-57.10
-79.68
-101.65
-124.81
-147.47
-163.69
-165.69
-148.50
-113.78
-70.07
-28.81
1.42
18.94
28.60
37.49
49.67
63.19
71.40
67.04
46.86
13.71
-24.61
-59.05
-83.01
-94.37
-94.95
-88.23
-77.22
-63.39
-47.01
-28.40
-8.86
9.35
23.77
32.71
35.75
33.47
26.97
17.68
7.52
-0.64
-2.91
4.95
26.05
60.73
105.55
153.43
195.11
221.68
227.14
210.20
174.77
128.97
83.02
46.75
26.84
24.69
35.85
51.50
61.83
59.85
43.91
17.58
-12.70
-40.89
-63.51
-79.57
-88.87
-90.31
-81.80
-62.00
-32.67
0.27
28.00
42.10
38.03
16.96
-14.82
-48.41
-75.70
-91.76
-95.49
-88.80
-74.91
-57.09
-38.28
-21.36
-9.35
-4.96
-9.54
-22.17
-39.49
-56.68
-68.95
-72.98
-67.37
-52.31
-28.85
1.49
36.51
72.87
106.09
131.15
143.71
141.54
125.43
99.27
69.39
43.39
28.56
30.18
49.77
83.76
123.45
156.87
172.16
161.51
123.77
64.57
-5.92
-76.57
-138.18
-184.66
-212.60
-220.20
-206.84
-173.74
-125.18
-69.09
-16.13
22.84
39.99
33.09
6.43
-30.35
-65.46
-88.72
-94.49
-82.63
-57.55
-26.05
4.88
29.50
44.11
47.37
40.27
25.98
9.17
-5.15
-13.21
-13.42
-6.52
5.33
19.95
36.16
53.97
73.83
95.61
117.75
137.07
149.36
150.75
139.56
117.63
90.35
64.98
48.01
42.76
48.00
58.47
66.65
65.03
48.03
13.10
-38.84
-103.24
-172.41
-236.67
-286.15
-312.96
-313.05
-287.01
-239.81
-179.56
-115.56
-56.49
-9.15
22.39
37.09
36.61
24.98
7.54
-10.47
-24.55
-31.73
-31.01
-22.94
-8.78
10.10
32.69
57.13
79.65
95.92
102.54
98.21
84.75
66.57
48.84
35.91
29.15
26.31
24.70
23.06
21.83
22.86
28.30
39.35
56.30
77.22
97.36
112.32
119.81
119.92
115.55
111.60
107.90
105.59
112.08
126.55
141.36
149.72
146.07
127.02
91.59
41.02
-20.64
-87.87
-155.17
-215.75
-262.56
-290.87
-299.49
-291.04
-270.99
-245.14
-218.28
-193.74
-171.63
-149.87
-126.72
-101.98
-77.04
-53.82
-33.32
-15.66
-1.01
10.69
19.62
26.04
30.75
35.59
42.83
54.09
69.11
85.40
99.83
110.24
116.01
117.73
116.06
110.78
101.04
86.08
66.14
42.89
18.98
-2.90
-20.20
-30.36
-30.78
-19.74
2.13
30.62
58.17
76.16
78.12
62.20
31.62
-7.22
-47.54
-84.34
-114.88
-137.75
-151.55
-154.47
-144.94
-122.82
-90.37
-52.21
-14.41
17.00
37.53
45.33
41.75
30.95
18.49
9.54
7.09
11.30
20.07
30.51
40.48
49.11
56.35
61.77
64.29
62.78
57.20
49.02
40.25
31.86
22.91
11.44
-3.48
-19.92
-33.25
-38.57
-33.97
-22.42
-10.52
-4.92
-8.14
-16.84
-23.44
-20.23
-3.61
24.02
55.35
81.54
95.73
95.35
82.54
62.39
40.63
21.21
5.58
-6.95
-17.72
-27.33
-35.12
-39.55
-39.13
-33.32
-22.67
-8.66
7.01
22.45
35.78
45.19
48.98
46.32
37.97
26.76
17.26
14.24
20.22
33.47
47.89
55.21
48.71
26.25
-8.87
-49.72
-89.09
-122.02
-146.25
-160.69
-163.56
-152.05
-124.15
-81.27
-29.65
20.97
60.84
84.16
90.93
85.92
75.84
65.98
58.56
53.18
48.39
43.56
39.75
38.97
42.74
50.60
59.65
65.32
63.08
50.58
29.05
3.46
-18.92
-31.09
-28.96
-12.82
12.84
41.28
66.01
82.74
89.98
88.24
78.86
63.23
42.75
19.18
-5.24
-28.31
-48.63
-65.98
-80.83
-93.39
-102.83
-107.35
-104.94
-94.52
-76.60
-53.18
-27.06
-1.19
21.73
39.32
49.61
51.44
44.96
32.16
16.63
2.74
-5.80
-7.08
-1.56
8.29
19.05
27.62
32.25
32.94
31.07
28.68
27.47
28.22
30.62
33.11
32.98
26.62
10.55
-16.88
-53.57
-93.08
-125.93
-142.97
-139.24
-116.44
-82.44
-48.01
-22.26
-9.17
-7.03
-10.50
-14.08
-14.64
-11.83
-6.69
0.17
9.37
22.17
38.84
57.36
73.44
82.08
80.02
67.64
49.24
31.30
19.68
17.10
22.33
31.17
38.72
41.29
37.19
26.30
9.18
-13.25
-39.05
-64.42
-83.71
-91.05
-83.12
-61.45
-32.58
-5.49
12.43
18.86
17.28
14.61
17.29
27.92
44.29
60.94
72.02
73.86
65.85
49.77
28.46
4.80
-18.82
-40.33
-58.07
-70.86
-78.25
-80.77
-79.96
-78.01
-77.12
-78.55
-81.84
-84.52
-82.58
-71.92
-50.22
-18.51
18.49
53.80
80.83
96.19
101.06
100.54
101.15
107.71
121.23
138.59
154.02
161.64
157.84
142.46
118.43
90.30
62.23
36.90
15.49
-1.53
-13.56
-19.82
-20.37
-17.28
-14.89
-18.44
-31.39
-53.08
-78.26
-99.20
-109.40
-106.81
-94.60
-79.14
-66.31
-58.63
-54.55
-50.18
-42.05
-29.16
-13.43
1.40
11.46
14.16
8.84
-3.31
-19.97
-38.59
-57.24
-75.00
-91.56
-106.52
-118.53
-125.32
-124.76
-116.35
-102.14
-86.15
-72.51
-63.34
-57.66
-52.10
-42.91
-28.21
-8.86
12.12
31.50
47.53
60.75
73.46
88.20
106.32
127.03
147.67
164.77
175.33
177.86
172.54
160.66
143.67
122.70
98.62
72.67
47.02
24.73
8.84
1.11
0.93
5.04
8.36
5.49
-7.41
-31.10
-62.49
-95.30
-121.96
-136.25
-135.67
-122.33
-102.00
-81.55
-66.15
-57.53
-54.11
-52.69
-50.55
-46.78
-42.39
-39.10
-37.87
-38.21
-38.37
-36.50
-31.83
-25.48
-20.23
-19.45
-25.60
-38.95
-57.24
-76.32
-91.48
-99.23
-98.52
-91.26
-81.68
-75.01
-75.51
-84.77
-100.68
-117.59
-127.90
-124.61
-103.94
-66.88
-18.97
31.61
76.91
111.70
134.46
146.77
151.74
152.30
150.34
146.86
142.56
138.27
134.73
132.04
129.25
124.60
116.48
104.40
89.50
74.12
60.71
50.76
44.45
41.25
40.69
42.89
48.19
56.03
63.92
67.44
61.81
44.48
17.18
-13.81
-39.82
-53.53
-52.24
-38.95
-20.79
-5.54
1.53
-0.81
-10.58
-24.53
-39.93
-55.11
-68.85
-79.49
-84.85
-83.18
-74.52
-61.37
-48.08
-39.15
-37.23
-41.88
-49.64
-55.59
-55.39
-46.94
-31.00
-10.44
11.24
31.25
48.25
62.18
73.66
83.31
91.60
98.78
104.73
108.53
108.19
100.95
84.72
59.88
30.57
4.02
-11.99
-12.57
1.69
24.70
47.35
61.40
62.63
51.79
33.15
11.88
-8.26
-25.57
-39.70
-50.35
-56.56
-57.09
-51.40
-40.68
-28.10
-18.05
-14.64
-20.17
-34.08
-53.10
-72.45
-87.59
-95.83
-97.09
-93.48
-88.06
-83.33
-80.30
-78.49
-76.72
-74.17
-70.89
-67.52
-64.44
-61.09
-55.97
-47.32
-34.29
-17.66
0.40
17.24
31.00
41.21
48.68
54.65
59.92
64.43
67.60
68.89
68.29
66.33
63.54
60.02
55.24
48.42
39.11
27.60
14.95
2.63
-7.99
-15.94
-20.77
-22.67
-22.39
-21.00
-19.61
-18.93
-19.14
-19.85
-20.27
-19.68
-17.74
-14.82
-11.80
-9.75
-9.68
-12.41
-18.64
-28.67
-42.21
-58.15
-74.57
-89.02
-98.97
-102.52
-98.89
-88.82
-73.80
-55.53
-35.41
-14.28
7.88
32.20
60.23
92.92
129.30
167.03
202.82
232.80
252.89
259.89
252.83
233.41
205.78
174.84
146.24
124.62
111.46
103.73
95.14
79.17
51.31
10.56
-41.40
-99.07
-154.24
-198.61
-226.54
-235.59
-225.27
-196.62
-147.11
-83.81
-22.60
18.74
31.08
13.44
-31.77
-98.91
-180.09
-264.57
-342.73
-405.72
-445.80
-457.41
-439.01
-393.79
-327.89
-250.04
-169.33
-93.82
-27.59
29.29
78.50
121.24
157.67
189.14
217.53
245.67
276.39
312.28
354.39
400.24
442.96
472.62
480.97
462.92
418.71
353.71
276.69
196.93
120.85
51.18
-18.91
-88.47
-151.66
-202.10
-237.21
-258.37
-267.75
-268.46
-259.26
-237.29
-199.65
-147.54
-86.44
-23.75
30.80
69.84
90.60
94.89
86.35
69.22
45.98
18.48
-9.96
-33.72
-45.76
-41.05
-19.24
14.21
50.90
82.63
105.02
118.85
128.46
138.89
152.84
169.65
186.46
200.96
212.70
222.92
232.73
240.90
243.36
234.77
211.84
176.35
136.25
103.17
87.91
96.00
125.44
167.82
211.83
247.36
268.17
272.51
261.86
238.93
206.11
165.03
116.96
63.56
7.42
-48.14
-99.63
-144.00
-178.98
-202.70
-213.30
-208.94
-188.74
-154.23
-110.29
-64.90
-27.35
-5.53
-3.56
-20.92
-53.37
-95.06
-140.54
-185.80
-228.31
-266.54
-299.69
-327.68
-351.34
-372.37
-393.08
-415.29
-439.41
-463.93
-485.91
-502.14
-510.26
-509.35
-500.03
-484.64
-466.01
-446.23
-425.70
-403.15
-376.55
-344.12
-305.00
-259.74
-211.20
-163.03
-117.92
-76.24
-36.07
5.47
50.75
100.86
154.90
208.05
253.36
283.82
294.52
283.81
253.09
206.01
147.97
90.94
47.05
24.90
25.14
42.57
71.42
107.65
147.90
187.70
226.91
262.71
291.32
309.78
317.48
316.43
311.02
302.04
293.40
289.24
289.98
292.15
289.31
274.73
244.40
198.48
140.94
78.85
19.30
-33.50
-77.70
-113.14
-140.89
-163.56
-185.68
-212.59
-247.18
-287.77
-327.51
-355.62
-361.40
-338.68
-288.76
-220.15
-145.39
-76.52
-22.16
13.64
31.47
35.52
32.18
28.49
30.43
41.56
62.46
90.61
121.49
149.98
171.83
184.53
187.66
182.71
172.34
159.49
146.35
133.73
120.91
106.26
88.17
65.88
40.02
12.46
-14.28
-37.75
-56.21
-68.95
-76.33
-79.54
-80.26
-80.06
-80.00
-80.27
-80.28
-79.09
-76.02
-71.08
-65.02
-58.92
-53.47
-48.53
-43.20
-36.26
-26.98
-15.48
-2.72
10.02
21.92
32.90
43.50
54.28
65.15
75.08
82.48
85.85
84.46
78.70
69.81
59.46
49.11
39.79
32.01
25.93
21.49
18.41
16.14
13.86
10.74
6.33
0.93
-4.35
-7.97
-8.64
-5.98
-0.82
5.01
9.36
10.59
8.05
2.35
-4.92
-11.71
-16.17
-17.12
-14.44
-9.01
-2.30
4.21
9.52
13.40
16.23
18.54
20.73
22.88
24.91
26.77
28.57
30.48
32.61
34.85
36.87
38.29
38.81
38.33
36.86
34.52
31.53
28.18
24.89
22.12
20.31
19.66
20.10
21.30
22.79
24.12
25.01
25.37
25.21
24.54
23.28
21.21
18.13
13.95
8.92
3.51
-1.67
-6.10
-9.51
-11.94
-13.58
-14.62
-15.10
-14.91
-13.92
-12.19
-10.01
-7.95
-6.61
-6.47
-7.66
-9.91
-12.64
-15.08
-16.61
-16.85
-15.72
-13.43
-10.28
-6.54
-2.42
1.94
6.32
10.40
13.81
16.27
17.70
18.26
18.31
18.20
18.11
17.94
17.44
16.33
14.46
11.88
8.76
5.28
1.55
-2.40
-6.48
-10.51
-14.17
-17.12
-19.13
-20.18
-20.48
-20.35
-20.03
-19.59
-18.86
-17.58
-15.48
-12.40
-8.40
-3.77
1.01
5.31
8.47
9.93
9.39
6.88
2.81
-2.17
-7.31
-11.95
-15.70
-18.42
-20.16
-21.09
-21.44
-21.50
-21.63
-22.19
-23.43
-25.32
-27.57
-29.65
-31.03
-31.36
-30.59
-28.93
-26.77
-24.49
-22.40
-20.65
-19.26
-18.11
-17.00
-15.66
-13.91
-11.67
-8.99
-6.07
-3.06
-0.04
2.99
6.14
9.46
12.91
16.34
19.57
22.44
24.84
26.75
28.16
29.02
29.31
29.00
28.18
26.96
25.48
23.77
21.77
19.38
16.58
13.47
10.28
7.23
4.43
1.85
-0.61
-2.98
-5.19
-7.08
-8.53
-9.54
-10.21
-10.58
-10.52
-9.71
-7.91
-5.13
-1.79
1.42
3.81
5.05
5.34
5.24
5.35
6.03
7.21
8.58
9.80
10.68
11.29
11.79
12.33
12.93
13.44
13.64
13.33
12.42
10.95
9.14
7.24
5.47
3.95
2.62
1.29
-0.22
-1.98
-3.92
-5.76
-7.26
-8.29
-8.87
-9.24
-9.63
-10.23
-11.05
-11.99
-12.86
-13.53
-13.96
-14.25
-14.52
-14.80
-15.04
-15.10
-14.83
-14.20
-13.33
-12.40
-11.59
-10.93
-10.30
-9.50
-8.40
-6.97
-5.36
-3.74
-2.24
-0.82
0.65
2.32
4.29
6.52
8.92
11.37
13.74
15.97
18.03
19.95
21.83
23.81
26.00
28.35
30.64
32.53
33.69
33.92
33.28
31.99
30.40
28.78
27.30
25.99
24.73
23.36
21.76
19.89
17.84
15.78
13.90
12.23
10.65
8.87
6.58
3.57
-0.24
-4.84
-10.17
-16.14
-22.55
-29.03
-34.99
-39.72
-42.65
-43.58
-42.72
-40.60
-37.86
-34.99
-32.29
-29.84
-27.68
-25.82
-24.18
-22.60
-20.83
-18.63
-15.99
-13.19
-10.76
-9.27
-8.98
-9.69
-10.81
-11.64
-11.68
-10.86
-9.56
-8.32
-7.68
-7.98
-9.35
-11.87
-15.62
-20.71
-27.24
-35.22
-44.43
-54.52
-65.01
-75.31
-84.73
-92.38
-97.25
-98.39
-95.17
-87.44
-75.67
-60.83
-44.21
-27.23
-11.16
2.99
14.57
23.38
29.67
33.97
37.03
39.49
41.81
44.12
46.37
48.38
50.01
51.11
51.64
51.57
50.96
49.95
48.74
47.58
46.67
46.03
45.54
44.95
43.98
42.46
40.39
37.83
34.97
32.02
29.23
26.81
24.91
23.57
22.65
21.93
21.16
20.17
18.92
17.44
15.76
13.85
11.66
9.17
6.52
3.92
1.65
-0.09
-1.22
-1.82
-2.00
-1.88
-1.51
-0.94
-0.25
0.46
1.03
1.27
1.12
0.58
-0.18
-0.86
-1.18
-0.96
-0.22
0.77
1.64
2.04
1.79
0.91
-0.37
-1.77
-3.05
-4.05
-4.79
-5.33
-5.86
-6.60
-7.79
-9.62
-12.12
-15.16
-18.45
-21.57
-24.17
-25.97
-26.90
-27.03
-26.53
-25.61
-24.47
-23.28
-22.19
-21.28
-20.61
-20.05
-19.39
-18.28
-16.37
-13.44
-9.48
-4.78
0.14
4.61
7.96
9.66
9.51
7.64
4.57
0.96
-2.64
-5.90
-8.84
-11.71
-14.82
-18.23
-21.69
-24.65
-26.50
-26.79
-25.45
-22.71
-19.06
-14.95
-10.72
-6.50
-2.25
2.09
6.54
11.03
15.42
19.55
23.27
26.48
29.12
31.16
32.69
33.79
34.63
35.26
35.63
35.58
34.91
33.42
31.05
27.89
24.11
20.02
15.94
12.21
9.12
6.82
5.11
3.48
1.23
-2.25
-7.11
-12.88
-18.56
-23.08
-25.66
-26.17
-25.02
-22.91
-20.47
-18.12
-15.99
-14.16
-12.69
-11.74
-11.34
-11.33
-11.38
-11.13
-10.36
-9.14
-7.74
-6.46
-5.46
-4.65
-3.78
-2.60
-1.05
0.71
2.43
3.88
5.04
6.07
7.16
8.47
9.97
11.50
12.87
13.99
14.82
15.37
15.62
15.45
14.73
13.44
11.76
10.05
8.74
8.16
8.40
9.33
10.62
11.88
12.82
13.27
13.24
12.84
12.17
11.26
10.04
8.45
6.48
4.21
1.85
-0.31
-2.01
-3.08
-3.41
-3.02
-2.05
-0.71
0.73
2.03
3.09
3.96
4.85
5.98
7.50
9.35
11.28
12.94
14.06
14.49
14.26
13.53
12.51
11.41
10.43
9.74
9.44
9.60
10.17
11.07
12.18
13.38
14.62
15.88
17.19
18.56
19.95
21.27
22.37
23.03
23.04
22.23
20.62
18.36
15.67
12.77
9.71
6.33
2.37
-2.36
-7.82
-13.67
-19.34
-24.29
-28.16
-30.89
-32.74
-34.10
-35.34
-36.66
-38.07
-39.41
-40.45
-40.98
-40.91
-40.31
-39.43
-38.55
-37.93
-37.65
-37.58
-37.40
-36.82
-35.71
-34.19
-32.59
-31.22
-30.22
-29.41
-28.32
-26.43
-23.47
-19.55
-15.23
-11.35
-8.71
-7.87
-9.12
-12.40
-17.39
-23.55
-30.16
-36.41
-41.45
-44.58
-45.36
-43.79
-40.20
-35.31
-29.95
-24.89
-20.76
-17.88
-16.31
-15.83
-15.96
-16.09
-15.64
-14.18
-11.46
-7.50
-2.46
3.36
9.69
16.25
22.77
28.95
34.43
38.84
41.85
43.32
43.37
42.24
40.33
38.03
35.81
33.97
32.65
31.85
31.38
31.04
30.61
29.93
28.98
28.09
27.57
27.61
28.20
29.26
30.70
32.35
34.02
35.44
36.89
38.33
39.59
40.48
41.09
41.87
43.28
45.57
48.66
53.12
58.78
64.76
70.08
74.25
77.53
80.45
83.34
86.18
90.26
95.69
101.49
106.42
109.92
112.51
115.18
118.71
123.30
130.69
140.19
148.62
151.41
144.52
125.87
95.56
55.46
-2.47
-75.56
-153.17
-221.85
-272.97
-304.78
-319.29
-319.43
-308.27
-290.66
-266.15
-234.87
-197.86
-156.38
-111.23
-62.81
-11.99
39.66
85.08
120.02
140.68
144.90
133.02
108.67
78.48
50.64
33.10
31.73
50.47
87.56
135.93
185.30
225.75
250.93
259.32
253.39
237.28
215.40
189.56
159.80
126.36
91.61
59.87
35.29
19.12
8.53
-1.51
-16.28
-37.83
-63.86
-88.98
-107.75
-117.54
-119.50
-117.50
-115.87
-118.30
-126.32
-139.17
-154.39
-168.64
-178.39
-180.40
-172.45
-153.98
-128.00
-98.91
-71.09
-47.29
-28.47
-14.17
-3.08
6.42
15.74
23.45
27.59
26.14
17.36
-0.44
-28.44
-66.12
-110.34
-155.62
-198.58
-236.30
-266.65
-288.33
-301.45
-307.75
-310.23
-312.45
-299.93
-265.37
-210.77
-146.92
-85.26
-31.57
13.53
51.30
82.58
107.62
123.89
130.20
127.92
120.67
112.57
106.42
103.18
102.35
102.79
101.18
95.46
85.68
74.20
64.28
58.37
57.33
60.09
63.80
63.38
54.61
37.48
16.40
-0.70
-5.63
6.39
34.26
71.45
107.87
134.46
145.94
141.44
123.90
98.43
71.33
49.11
37.30
38.21
49.76
65.29
76.08
75.85
64.50
48.78
39.15
45.40
72.36
118.32
176.76
237.20
286.84
314.56
313.86
284.39
231.47
164.27
92.72
24.73
-35.67
-88.19
-134.79
-178.18
-220.90
-265.78
-315.49
-371.97
-434.66
-498.82
-554.97
-591.02
-596.77
-568.97
-513.66
-444.40
-376.90
-322.61
-284.81
-258.52
-234.41
-204.19
-164.37
-116.78
-66.24
-17.36
27.56
68.58
106.91
143.54
178.52
211.47
242.74
273.96
307.21
343.31
380.06
411.20
427.86
421.50
387.45
327.05
247.35
158.47
69.80
-13.22
-89.68
-161.43
-230.21
-295.23
-352.38
-395.38
-418.01
-416.42
-390.47
-343.54
-281.20
-209.52
-133.78
-57.80
16.06
86.51
152.99
215.34
274.17
330.87
386.79
442.12
494.85
540.82
575.01
593.47
594.42
579.52
553.23
520.64
484.99
446.50
403.22
353.40
297.14
235.89
173.34
114.49
63.71
22.91
-8.93
-34.95
-58.16
-80.94
-106.21
-134.54
-163.20
-187.38
-202.71
-208.30
-208.06
-208.03
-215.19
-236.82
-275.78
-329.27
-390.72
-452.52
-509.76
-561.36
-607.18
-627.48
-607.97
-550.26
-471.53
-389.49
-309.78
-230.16
-153.67
-76.31
0.65
70.49
127.46
170.80
205.73
235.76
265.67
297.52
331.90
367.45
401.59
433.67
465.69
479.32
464.33
420.96
356.73
280.14
196.24
109.09
25.21
-47.08
-101.00
-131.58
-139.96
-133.20
-119.45
-105.38
-94.90
-89.94
-91.12
-97.26
-102.54
-99.93
-85.15
-56.12
-15.04
32.57
78.88
116.06
138.62
145.18
136.19
112.72
77.25
34.36
-9.23
-47.49
-76.91
-96.20
-105.19
-104.90
-97.15
-84.41
-70.88
-57.43
-44.95
-40.24
-48.74
-68.67
-91.71
-108.83
-115.41
-113.05
-106.81
-102.08
-101.35
-102.62
-102.14
-97.47
-89.25
-80.27
-73.53
-70.90
-73.07
-79.71
-89.04
-98.15
-103.48
-101.32
-88.66
-64.64
-31.55
4.92
37.67
61.40
74.42
78.41
76.89
73.06
68.58
63.57
57.59
50.73
44.29
39.87
38.25
38.69
39.45
38.86
36.04
31.55
26.91
23.94
24.01
27.07
32.12
37.54
41.95
44.67
45.92
46.62
48.02
51.09
56.03
61.90
66.57
67.33
61.95
49.78
32.22
12.42
-5.90
-19.84
-28.17
-31.44
-31.25
-29.18
-26.15
-22.42
-18.04
-13.32
-9.00
-5.90
-4.62
-5.30
-7.55
-10.75
-14.14
-17.23
-19.79
-21.89
-23.79
-25.82
-28.27
-31.17
-34.27
-37.05
-38.91
-39.44
-38.40
-35.87
-31.73
-26.21
-19.70
-12.66
-5.60
1.03
6.88
11.73
15.58
18.57
20.92
22.87
24.55
26.03
27.16
27.76
27.58
26.49
24.48
21.75
18.66
15.68
13.21
11.43
10.31
9.65
9.19
8.80
8.45
8.29
8.52
9.32
10.80
12.94
15.59
18.55
21.53
24.20
26.27
27.51
27.78
27.08
25.49
23.23
20.53
17.64
14.72
11.84
9.02
6.27
3.69
1.46
-0.18
-1.05
-1.12
-0.56
0.27
0.91
0.88
-0.12
-2.15
-5.00
-8.27
-11.51
-14.42
-16.88
-19.03
-21.11
-23.36
-25.90
-28.73
-31.72
-34.69
-37.40
-39.62
-41.26
-42.38
-43.23
-44.15
-45.30
-46.49
-46.94
-45.46
-40.85
-32.46
-20.71
-7.17
5.80
15.81
21.36
22.37
20.09
16.53
13.48
11.81
11.26
10.86
9.60
7.07
3.55
-0.32
-3.91
-7.04
-9.95
-13.01
-16.40
-19.94
-23.15
-25.47
-26.47
-26.02
-24.14
-21.02
-16.91
-12.11
-6.98
-1.98
2.34
5.41
6.75
6.19
3.94
0.68
-2.64
-5.02
-5.79
-4.76
-2.28
1.00
4.32
7.11
9.06
10.10
10.32
9.93
9.20
8.39
7.76
7.44
7.44
7.72
8.23
8.96
9.93
11.13
12.49
13.86
15.05
15.94
16.52
16.86
17.08
17.26
17.45
17.61
17.65
17.47
16.93
15.97
14.58
12.85
10.93
9.02
7.24
5.69
4.38
3.24
2.16
1.03
-0.24
-1.71
-3.34
-5.02
-6.55
-7.77
-8.54
-8.79
-8.52
-7.76
-6.55
-4.95
-3.05
-1.01
1.01
2.86
4.41
5.65
6.59
7.34
7.99
8.66
9.40
10.22
11.01
11.62
11.88
11.69
11.12
10.30
9.44
8.66
7.99
7.35
6.68
5.98
5.32
4.73
4.19
3.54
2.64
1.38
-0.20
-1.96
-3.74
-5.36
-6.75
-7.86
-8.70
-9.31
-9.80
-10.27
-10.81
-11.42
-12.04
-12.59
-12.97
-13.17
-13.18
-12.95
-12.41
-11.41
-9.92
-7.98
-5.76
-3.47
-1.24
0.84
2.83
4.74
6.57
8.31
9.94
11.43
12.76
13.87
14.68
15.11
15.13
14.82
14.31
13.74
13.17
12.55
11.83
10.97
10.08
9.30
8.76
8.43
8.13
7.64
6.83
5.74
4.52
3.33
2.16
0.83
-0.98
-3.56
-6.98
-11.11
-15.62
-20.11
-24.22
-27.67
-30.32
-32.10
-33.03
-33.17
-32.62
-31.45
-29.74
-27.54
-24.90
-21.93
-18.75
-15.51
-12.36
-9.43
-6.81
-4.53
-2.55
-0.81
0.72
2.08
3.28
4.35
5.35
6.39
7.59
9.04
10.74
12.60
14.48
16.21
17.70
18.86
19.64
19.94
19.69
18.85
17.47
15.67
13.59
11.40
9.26
7.30
5.66
4.42
3.56
2.97
2.45
1.80
0.93
-0.11
-1.21
-2.18
-2.88
-3.28
-3.37
-3.23
-2.94
-2.58
-2.25
-2.04
-1.95
-1.99
-2.13
-2.39
-2.85
-3.62
-4.83
-6.53
-8.62
-10.90
-13.09
-14.97
-16.44
-17.61
-18.71
-20.05
-21.84
-24.11
-26.67
-29.23
-31.47
-33.14
-34.09
-34.25
-33.57
-32.01
-29.64
-26.60
-23.22
-19.85
-16.79
-14.14
-11.70
-9.14
-6.15
-2.68
1.02
4.51
7.27
8.97
9.56
9.24
8.38
7.43
6.86
7.00
8.07
10.11
12.93
16.17
19.43
22.35
24.71
26.43
27.49
27.90
27.67
26.92
25.88
24.88
24.25
24.15
24.52
25.01
25.19
24.69
23.36
21.28
18.75
16.07
13.47
11.07
8.82
6.67
4.58
2.56
0.64
-1.16
-2.92
-4.78
-6.80
-9.00
-11.21
-13.16
-14.55
-15.21
-15.14
-14.64
-14.10
-13.95
-14.48
-15.76
-17.64
-19.72
-21.57
-22.93
-23.74
-24.13
-24.30
-24.43
-24.60
-24.76
-24.57
-23.61
-21.62
-18.68
-15.23
-11.98
-9.70
-8.86
-9.50
-10.87
-12.04
-12.30
-11.58
-10.36
-9.41
-9.51
-11.22
-14.78
-19.28
-23.82
-27.92
-31.52
-34.60
-36.75
-37.23
-35.28
-30.58
-21.53
-7.47
10.82
31.13
50.59
66.75
78.03
84.03
85.76
88.51
98.12
118.80
151.71
195.17
245.81
299.37
351.42
397.92
439.35
476.47
508.75
533.83
548.87
552.39
544.79
527.84
481.03
395.03
275.43
142.41
19.31
-79.29
-150.10
-196.91
-225.72
-242.23
-247.98
-243.30
-230.40
-214.37
-201.59
-197.31
-204.47
-223.93
-251.69
-280.23
-302.03
-311.86
-308.39
-293.98
-273.30
-251.70
-233.44
-220.17
-208.97
-195.30
-176.05
-151.78
-126.58
-105.86
-93.74
-91.38
-96.92
-106.26
-115.58
-122.89
-127.89
-130.60
-130.30
-125.58
-115.61
-101.22
-84.97
-70.26
-59.95
-55.21
-55.16
-57.43
-59.14
-57.81
-51.91
-41.19
-26.65
-10.52
4.31
14.96
19.53
17.65
10.42
-0.17
-11.99
-23.16
-32.01
-36.97
-36.73
-30.66
-19.27
-4.13
12.74
30.02
47.74
67.09
89.28
114.11
139.28
160.80
174.54
178.03
171.57
158.18
142.48
128.88
120.04
116.06
114.54
111.77
104.34
90.57
71.00
47.92
24.00
1.06
-20.42
-40.72
-59.76
-76.36
-88.58
-94.81
-95.09
-91.40
-86.94
-84.48
-85.05
-87.37
-88.60
-85.62
-76.40
-60.96
-41.62
-22.38
-7.84
-1.55
-4.54
-14.64
-26.98
-35.88
-37.23
-30.24
-17.69
-4.37
5.31
9.29
8.47
5.67
3.85
4.57
7.58
11.39
14.39
15.67
15.25
13.77
11.96
10.43
9.64
10.13
12.55
17.48
24.96
34.21
43.77
52.10
58.45
63.28
67.95
73.89
81.51
89.73
96.45
99.66
98.61
94.24
88.61
83.59
79.87
76.71
72.60
66.35
57.63
46.88
34.66
20.97
5.40
-12.25
-31.08
-48.94
-62.96
-70.93
-72.43
-69.16
-64.14
-60.22
-58.77
-59.10
-58.99
-55.83
-47.84
-34.79
-18.17
-0.77
13.92
22.45
22.25
12.57
-4.73
-25.03
-41.83
-48.55
-40.95
-19.01
12.43
44.97
69.45
79.28
72.81
53.74
29.49
8.25
-4.02
-5.24
2.71
15.36
27.46
34.62
34.18
25.40
9.31
-11.69
-34.36
-55.37
-72.04
-82.99
-88.29
-89.12
-87.16
-84.23
-82.00
-81.91
-84.94
-90.99
-98.38
-103.81
-103.29
-93.83
-75.12
-50.22
-24.69
-4.47
6.47
7.30
0.05
-11.92
-25.59
-39.02
-50.99
-60.04
-63.91
-59.99
-46.59
-24.17
4.10
33.04
56.97
71.45
74.47
66.89
52.05
34.68
19.56
10.19
7.73
10.83
16.17
19.63
17.60
8.00
-9.32
-32.62
-58.66
-83.35
-102.46
-112.57
-112.01
-101.38
-83.42
-62.06
-40.98
-22.30
-6.08
9.12
24.94
41.83
58.45
71.98
79.39
78.82
70.39
56.10
38.94
21.82
6.88
-4.56
-11.76
-14.47
-12.95
-8.23
-2.10
3.48
7.21
9.16
10.81
14.19
20.65
29.92
40.06
48.59
53.81
55.71
55.70
55.37
55.26
54.26
50.26
41.65
28.56
13.20
-1.08
-11.31
-16.16
-16.22
-13.10
-8.22
-1.89
6.72
18.90
35.45
55.91
78.26
99.33
115.48
123.62
122.09
111.17
93.00
70.99
48.81
29.56
15.22
6.60
3.74
6.18
13.12
23.40
35.37
47.02
56.46
62.41
64.66
63.87
61.14
57.33
52.71
47.05
40.12
32.19
24.16
17.23
12.31
9.42
7.62
5.39
1.26
-5.52
-14.73
-25.31
-35.72
-44.45
-50.38
-52.99
-52.36
-49.08
-44.34
-39.82
-37.48
-38.81
-43.87
-50.83
-56.29
-56.74
-50.27
-37.76
-22.48
-8.55
1.11
6.05
8.13
10.00
13.44
18.42
23.44
26.81
27.70
26.40
23.61
19.26
12.03
-0.08
-18.26
-41.29
-64.90
-82.94
-89.75
-82.63
-63.40
-37.84
-13.59
2.59
7.02
-0.10
-15.18
-32.68
-46.73
-52.68
-48.12
-33.29
-10.96
14.45
38.08
55.87
65.50
66.69
61.01
51.14
39.90
29.33
20.16
12.01
4.13
-3.75
-10.94
-16.17
-18.59
-18.66
-18.37
-20.45
-27.11
-38.89
-54.32
-70.33
-83.17
-89.45
-87.11
-76.24
-59.32
-40.86
-26.02
-18.67
-19.75
-26.81
-35.29
-40.78
-41.05
-36.73
-30.28
-24.25
-19.78
-16.53
-13.73
-11.26
-10.11
-11.67
-16.54
-23.73
-30.91
-35.53
-36.15
-33.16
-28.54
-24.80
-23.85
-26.34
-31.76
-39.04
-47.19
-55.52
-63.43
-70.11
-74.46
-75.63
-73.63
-69.84
-66.66
-66.63
-71.24
-80.12
-91.29
-102.08
-110.28
-114.82
-115.74
-113.42
-108.00
-99.26
-86.97
-71.46
-53.80
-35.36
-17.04
1.27
20.63
42.31
66.71
92.70
117.68
138.41
152.13
157.44
154.58
145.06
131.08
114.87
98.32
82.79
69.13
57.74
48.57
41.27
35.37
30.37
25.98
22.10
18.84
16.40
14.98
14.64
15.35
16.94
19.17
21.76
24.43
26.91
28.88
30.02
30.07
28.92
26.70
23.78
20.71
18.06
16.21
15.35
15.43
16.33
17.89
19.96
22.34
24.76
26.86
28.26
28.70
28.11
26.64
24.58
22.30
20.10
18.21
16.84
16.11
16.13
16.87
18.13
19.57
20.83
21.60
21.81
21.55
21.05
20.46
19.82
19.06
18.04
16.71
15.08
13.24
11.30
9.34
7.47
5.82
4.61
4.03
4.16
4.92
5.99
7.03
7.71
7.88
7.54
6.84
5.89
4.78
3.49
1.99
0.26
-1.61
-3.44
-4.97
-5.91
-6.02
-5.12
-3.20
-0.45
2.81
6.20
9.43
12.32
14.93
17.43
19.98
22.68
25.45
28.10
30.35
31.96
32.76
32.73
32.05
31.02
30.07
29.58
29.73
30.52
31.68
32.93
34.04
34.95
35.71
36.36
36.87
37.09
36.84
36.03
34.74
33.20
31.63
30.18
28.82
27.38
25.61
23.24
19.99
15.53
9.55
1.77
-7.84
-18.94
-30.83
-42.60
-53.33
-62.43
-69.80
-75.78
-80.94
-85.64
-89.81
-92.79
-93.60
-91.32
-85.54
-76.56
-65.31
-53.04
-40.87
-29.64
-19.83
-11.72
-5.48
-1.21
1.21
2.15
2.14
1.67
0.91
-0.27
-2.17
-4.88
-8.16
-11.43
-14.09
-15.86
-16.89
-17.69
-18.78
-20.32
-21.93
-22.76
-21.75
-18.05
-11.34
-1.93
9.26
20.97
31.87
40.81
47.08
50.49
51.36
50.39
48.46
46.38
44.67
43.50
42.65
41.79
40.62
39.12
37.41
35.68
33.93
31.89
29.05
24.98
19.52
13.02
6.23
0.05
-4.82
-8.09
-10.06
-11.44
-13.20
-16.19
-20.94
-27.50
-35.40
-43.75
-51.60
-58.26
-63.51
-67.57
-70.86
-73.55
-75.25
-74.98
-71.57
-64.04
-52.16
-36.51
-18.41
0.48
18.48
34.20
46.70
55.56
60.95
63.55
64.56
65.43
67.56
71.98
79.14
88.75
99.98
111.81
123.41
134.42
144.99
155.46
165.98
176.17
184.97
190.86
192.23
187.77
176.74
159.03
135.16
106.11
73.16
37.68
0.89
-36.27
-73.26
-109.80
-145.67
-180.32
-212.59
-240.65
-262.24
-275.22
-278.25
-271.17
-255.19
-232.45
-205.51
-176.85
-148.55
-122.27
-99.24
-80.32
-65.75
-55.14
-47.48
-41.52
-36.23
-31.20
-26.61
-22.94
-20.51
-19.11
-17.97
-16.04
-12.45
-6.89
0.24
7.97
15.06
20.30
22.83
22.24
18.63
12.58
5.00
-3.03
-10.38
-16.19
-19.95
-21.69
-21.96
-21.66
-21.77
-23.03
-25.66
-29.23
-32.71
-34.72
-33.99
-29.70
-21.77
-10.83
1.98
15.42
28.46
40.35
50.62
58.92
64.96
68.63
70.12
70.05
69.43
69.43
71.10
75.11
81.59
90.00
99.15
107.30
112.47
113.00
108.11
98.25
85.05
70.79
57.53
46.52
37.96
31.32
25.89
21.23
17.27
14.12
11.72
9.74
7.66
5.03
1.65
-2.44
-7.04
-11.93
-16.86
-21.50
-25.43
-28.22
-29.69
-30.08
-30.07
-30.54
-31.98
-34.41
-37.25
-39.62
-40.68
-39.98
-37.60
-34.11
-30.24
-26.51
-23.05
-19.68
-16.06
-12.03
-7.79
-3.92
-1.24
-0.36
-1.25
-3.43
-6.09
-8.48
-10.06
-10.58
-10.01
-8.50
-6.14
-2.51
2.68
9.32
16.71
23.86
29.82
33.96
35.90
35.86
35.36
35.80
37.82
41.09
44.60
47.52
49.43
50.05
49.86
51.13
55.65
63.91
74.71
85.88
95.58
102.77
106.69
108.00
109.81
114.82
124.18
137.13
151.78
166.74
181.43
195.25
194.89
172.07
126.38
67.03
7.09
-44.00
-82.70
-105.72
-118.90
-126.77
-129.87
-127.81
-120.77
-110.23
-100.56
-94.43
-93.05
-97.05
-105.21
-114.32
-121.67
-125.86
-127.12
-126.61
-125.06
-122.84
-120.58
-118.17
-114.73
-109.83
-103.68
-97.16
-91.21
-86.08
-81.48
-77.12
-72.18
-65.55
-56.72
-45.92
-34.14
-22.80
-13.01
-5.45
-0.37
2.72
4.77
6.70
9.04
11.83
14.79
17.59
20.04
22.09
23.95
25.92
28.12
30.45
32.54
33.91
34.23
33.41
31.76
29.81
28.12
27.01
26.45
26.08
25.41
24.04
21.80
18.81
15.34
11.73
8.26
5.13
2.50
0.52
-0.66
-0.95
-0.34
0.96
2.62
4.16
5.27
5.90
6.36
7.25
9.18
12.41
16.65
21.06
24.56
26.26
25.72
23.18
19.38
15.27
11.79
9.63
9.16
10.46
13.31
17.20
21.36
24.87
26.85
26.60
23.80
18.62
11.69
