1647537431.00
64.000000
-0.00
-0.00
-0.00
-0.00
-0.00
-0.00
-0.00
-0.00
-0.00
-0.00
0.00
0.01
0.01
-0.00
-0.03
-0.05
-0.05
0.00
0.13
0.36
0.66
1.01
1.37
1.72
2.06
2.40
2.79
3.24
3.80
4.42
5.06
5.66
6.20
6.68
7.15
7.68
8.31
9.14
10.09
11.04
11.88
12.56
13.14
13.76
14.65
15.96
17.91
20.32
22.90
25.38
27.58
29.57
31.68
34.32
37.81
42.54
48.15
54.10
59.83
64.97
69.58
74.14
79.34
85.71
93.76
103.00
112.62
121.73
129.77
136.75
143.30
150.75
157.77
166.64
177.95
191.79
206.97
220.57
228.25
225.36
208.53
176.87
132.76
80.05
23.07
-34.94
-92.44
-149.16
-205.23
-260.37
-313.74
-363.87
-409.83
-450.91
-486.50
-515.74
-537.23
-549.22
-549.96
-538.37
-514.21
-478.67
-433.88
-382.45
-327.02
-269.84
-212.63
-156.66
-102.95
-52.37
-5.90
35.58
71.43
101.35
125.50
144.38
158.69
169.15
176.37
180.75
182.57
182.07
179.51
175.23
169.65
163.18
156.15
148.81
141.30
133.69
126.02
118.33
110.69
103.16
95.80
88.68
81.83
75.25
68.95
62.95
57.25
51.86
46.78
42.03
37.59
33.45
29.61
26.07
22.81
19.83
17.11
14.67
12.48
10.54
8.83
7.35
6.07
4.97
4.05
3.27
2.62
2.09
1.65
1.30
1.01
0.79
0.61
0.48
0.37
0.30
0.24
0.20
0.17
0.15
0.14
0.14
0.15
0.15
0.17
0.19
0.21
0.25
0.29
0.33
0.39
0.45
0.51
0.57
0.64
0.71
0.77
0.84
0.91
0.99
1.07
1.17
1.29
1.43
1.59
1.77
1.97
2.20
2.44
2.70
2.98
3.30
3.67
4.08
4.52
4.96
5.37
5.74
6.08
6.45
6.90
7.47
8.18
8.98
9.83
10.65
11.44
12.19
13.01
13.95
15.06
16.36
17.74
19.07
20.20
21.01
21.49
21.75
21.97
22.30
22.76
23.24
23.47
23.16
22.16
20.40
18.15
15.69
13.14
10.41
7.08
2.61
-3.38
-10.84
-19.22
-27.33
-33.87
-37.91
-39.29
-38.75
-37.58
-37.27
-38.83
-42.64
-48.06
-54.18
-60.29
-66.28
-72.63
-80.13
-89.46
-100.03
-112.61
-127.15
-142.74
-157.10
-166.52
-166.78
-154.82
-130.80
-98.52
-64.51
-35.18
-14.49
-2.53
3.75
8.50
14.83
23.60
34.02
44.81
55.54
66.48
78.23
90.71
102.02
111.02
116.36
117.45
114.76
109.75
104.02
98.96
95.03
91.72
88.09
83.00
75.81
66.61
56.84
46.86
37.42
28.92
21.33
14.44
7.91
1.66
-4.00
-8.48
-11.24
-11.71
-9.82
-6.00
-1.00
4.18
8.68
12.00
14.06
15.11
15.78
16.53
17.43
18.13
18.00
16.55
13.72
10.00
6.34
4.05
4.10
6.67
11.21
16.65
22.08
27.12
31.98
37.35
44.13
52.68
62.77
73.90
85.54
97.01
106.84
112.36
110.21
98.13
75.89
46.27
14.38
-14.18
-35.57
-47.93
-52.69
-53.49
-52.70
-50.65
-46.31
-39.46
-32.36
-29.27
-34.36
-49.20
-71.53
-95.38
-114.69
-125.64
-127.92
-124.12
-117.71
-111.07
-104.63
-99.16
-91.77
-81.25
-67.86
-52.83
-37.55
-22.86
-8.92
5.81
20.47
34.67
47.07
56.52
62.24
64.15
63.08
59.89
56.04
52.41
49.81
47.74
45.77
43.82
42.07
41.04
40.74
40.89
40.39
38.29
32.69
22.68
8.36
-9.38
-28.90
-49.39
-70.55
-93.06
-113.28
-131.66
-148.86
-164.59
-177.85
-187.31
-192.80
-194.72
-194.36
-192.89
-191.97
-192.41
-193.98
-199.03
-204.69
-207.81
-203.63
-187.42
-155.42
-108.18
-50.44
11.08
68.69
116.47
150.63
171.29
180.27
181.09
176.51
168.83
162.27
160.88
167.82
178.79
190.29
198.56
202.77
203.40
202.74
207.27
224.07
258.48
311.05
377.42
447.16
508.41
549.12
545.75
489.14
389.63
273.34
166.77
90.80
38.48
-2.30
-41.69
-85.42
-131.63
-176.80
-219.72
-258.38
-291.22
-315.63
-325.86
-317.18
-289.57
-247.62
-201.39
-162.06
-137.70
-130.09
-134.83
-143.80
-150.36
-152.11
-148.85
-145.46
-140.28
-130.89
-117.09
-101.31
-88.18
-82.46
-87.39
-103.08
-127.13
-155.11
-183.21
-210.79
-231.64
-246.25
-258.05
-271.58
-289.86
-312.16
-339.66
-362.79
-370.69
-355.81
-318.11
-263.93
-203.52
-147.15
-100.74
-62.60
-28.20
7.61
48.91
96.58
149.80
206.62
263.48
314.72
352.60
369.50
360.67
327.94
279.91
230.24
192.62
174.97
177.40
193.77
215.69
236.07
250.79
258.06
257.45
249.58
235.67
219.20
206.47
205.43
222.32
257.60
304.07
348.11
374.33
369.82
328.97
255.63
161.68
63.33
-24.40
-91.66
-139.68
-171.18
-191.75
-207.80
-223.45
-238.74
-249.74
-252.48
-245.35
-231.17
-213.60
-195.33
-176.38
-154.09
-124.63
-83.63
-29.77
36.06
110.41
188.60
264.07
329.27
377.71
398.35
386.60
346.20
288.68
227.93
174.91
133.90
103.76
81.81
66.32
57.83
56.57
61.57
68.28
71.99
69.68
60.86
47.68
33.59
22.21
14.98
10.59
5.16
-5.95
-23.79
-48.01
-76.27
-105.28
-131.65
-153.70
-171.86
-188.35
-205.93
-226.89
-252.80
-283.90
-318.89
-354.86
-387.49
-411.73
-423.24
-419.85
-402.86
-376.79
-347.31
-318.85
-293.21
-269.84
-247.11
-224.42
-203.09
-186.08
-176.24
-174.55
-179.28
-187.05
-194.02
-196.40
-191.32
-177.23
-154.29
-124.07
-89.42
-53.39
-19.48
9.13
30.67
44.56
53.21
57.88
59.61
57.64
54.34
52.68
55.29
64.20
80.52
104.84
137.32
178.30
227.74
286.49
354.44
423.88
484.82
527.50
546.29
541.46
518.31
483.36
443.84
405.10
370.67
343.22
323.11
307.68
291.17
271.64
241.90
199.46
146.87
90.91
40.06
0.35
-26.44
-42.28
-51.29
-57.88
-63.60
-69.43
-76.61
-85.24
-96.95
-113.38
-133.92
-155.70
-174.59
-185.77
-187.65
-181.51
-170.10
-156.54
-143.03
-130.58
-121.86
-121.87
-128.91
-142.81
-161.45
-179.49
-190.82
-191.37
-180.26
-160.87
-137.76
-113.62
-89.82
-66.45
-43.24
-20.87
-5.55
3.71
8.73
11.96
16.34
23.30
32.62
43.09
52.67
59.19
61.89
60.03
53.33
41.75
28.39
13.84
-2.15
-20.65
-43.44
-72.07
-108.41
-152.56
-201.45
-249.06
-288.37
-313.41
-321.81
-315.80
-300.21
-280.60
-260.76
-242.26
-225.98
-214.11
-209.55
-214.41
-227.94
-245.78
-261.96
-271.61
-273.15
-268.20
-259.86
-249.71
-237.14
-220.17
-197.48
-170.01
-140.74
-113.18
-89.58
-70.31
-54.21
-39.85
-26.52
-14.43
-4.20
3.78
9.91
15.06
20.32
26.60
34.21
43.08
52.84
63.30
74.60
87.28
102.17
120.14
141.98
168.15
198.76
233.28
270.29
307.31
341.16
368.68
387.73
397.81
399.91
395.95
387.94
377.51
365.79
353.56
341.15
327.97
312.18
290.98
261.53
222.44
174.78
122.13
69.64
22.43
-15.78
-43.18
-59.74
-66.71
-66.27
-61.26
-54.70
-49.21
-46.23
-45.58
-45.71
-44.71
-41.51
-36.60
-31.71
-28.75
-28.70
-31.02
-34.29
-37.23
-39.47
-41.37
-43.04
-43.73
-41.97
-36.67
-28.24
-18.80
-11.09
-6.78
-5.39
-4.55
-1.60
4.79
13.87
23.55
31.87
38.21
43.27
48.24
53.69
59.26
64.00
67.12
68.58
68.95
68.93
68.80
68.23
66.64
63.61
59.28
54.23
49.19
44.55
40.16
35.39
29.55
22.32
13.95
5.04
-3.84
-12.27
-19.91
-26.17
-30.01
-30.36
-26.67
-19.46
-10.29
-1.14
6.42
11.77
15.13
17.08
17.96
17.84
16.79
15.35
14.47
15.02
17.14
20.01
22.28
22.84
21.49
19.01
16.70
15.75
16.63
19.09
22.33
25.28
26.87
26.20
22.61
15.94
6.79
-3.53
-13.40
-21.34
-26.56
-29.20
-30.24
-31.16
-33.38
-37.56
-43.19
-48.52
-51.20
-49.28
-42.22
-31.33
-19.34
-9.16
-2.64
0.19
0.82
1.18
2.52
4.90
7.40
9.03
9.33
8.76
8.38
9.40
12.45
17.17
22.12
25.21
24.58
19.55
11.12
1.56
-6.56
-11.79
-14.48
-16.31
-19.17
-23.74
-29.13
-33.52
-35.44
-34.65
-32.06
-28.87
-25.58
-21.79
-16.76
-10.23
-3.09
3.06
6.75
7.52
6.12
4.00
2.43
1.90
2.20
2.87
3.82
5.42
8.16
12.19
17.00
21.52
24.67
25.81
24.96
22.63
19.44
15.88
12.27
8.83
5.69
2.91
0.55
-1.35
-2.69
-3.38
-3.48
-3.27
-3.06
-2.95
-2.54
-0.99
2.41
7.67
13.62
18.39
20.36
19.06
15.53
11.67
9.10
8.27
8.46
8.44
7.43
5.53
3.52
2.24
2.08
2.79
3.82
4.67
5.03
4.83
4.04
2.66
0.63
-2.02
-5.19
-8.75
-12.57
-16.60
-20.78
-24.89
-28.53
-31.31
-33.19
-34.56
-35.94
-37.45
-38.47
-37.76
-34.15
-27.43
-18.78
-10.52
-5.01
-3.54
-5.75
-9.87
-13.75
-16.01
-16.55
-16.25
-16.17
-16.88
-18.27
-19.86
-21.28
-22.62
-24.25
-26.56
-29.69
-33.50
-37.80
-42.57
-48.05
-54.44
-61.61
-68.98
-75.61
-80.64
-83.75
-85.34
-86.38
-88.10
-91.53
-97.14
-104.72
-113.54
-122.81
-132.05
-141.20
-150.50
-160.25
-170.75
-182.07
-193.89
-205.18
-214.01
-217.79
-213.95
-200.98
-179.13
-150.32
-117.38
-82.76
-47.64
-11.95
24.83
62.72
100.77
137.22
170.37
199.22
223.70
244.58
263.13
280.80
298.81
317.65
336.66
353.93
366.81
372.97
371.59
364.03
353.13
342.09
333.00
326.01
319.50
311.12
299.03
282.95
264.20
245.37
229.07
217.12
210.03
207.05
206.28
205.18
201.20
192.58
179.05
162.07
144.33
128.76
117.34
110.44
106.90
104.70
101.53
95.54
85.76
72.30
56.75
42.30
32.86
31.65
39.50
53.71
68.63
77.81
76.93
65.84
48.54
31.06
18.43
12.42
11.08
10.30
6.23
-2.89
-16.32
-31.75
-47.14
-61.89
-77.05
-94.37
-115.05
-139.15
-165.76
-194.03
-223.91
-255.76
-289.27
-322.46
-351.75
-373.15
-384.27
-385.27
-378.26
-365.46
-347.17
-321.54
-286.31
-241.44
-190.93
-142.23
-103.25
-78.63
-67.45
-63.70
-59.37
-48.06
-27.60
-0.24
28.77
53.44
68.77
71.53
60.26
35.35
-0.51
-41.87
-80.97
-109.60
-122.03
-117.77
-102.32
-85.13
-75.26
-76.95
-87.66
-99.75
-104.94
-99.08
-84.61
-68.86
-59.46
-59.38
-64.91
-67.64
-59.45
-37.51
-6.46
23.57
41.65
41.36
23.62
-3.98
-30.86
-47.99
-51.29
-42.43
-27.18
-12.25
-2.27
1.83
2.44
3.33
6.97
12.76
17.16
15.97
7.28
-6.80
-20.86
-29.00
-28.20
-19.95
-9.21
-1.33
1.07
-0.70
-2.73
-1.47
3.65
9.85
12.71
8.95
-1.79
-16.91
-32.52
-45.44
-54.19
-58.62
-58.83
-54.30
-44.01
-27.40
-5.52
18.57
40.58
56.47
63.89
62.64
54.44
41.90
27.63
13.65
1.04
-10.13
-20.34
-29.81
-37.66
-41.99
-40.85
-33.85
-23.09
-12.55
-6.09
-5.00
-7.17
-8.26
-4.55
4.61
16.27
25.67
29.13
26.19
19.51
12.96
9.14
8.09
7.79
5.89
1.34
-5.06
-11.22
-15.17
-16.31
-15.77
-15.65
-17.83
-22.83
-29.56
-35.98
-40.20
-41.44
-40.41
-38.89
-38.80
-41.09
-45.02
-48.50
-49.29
-46.44
-41.20
-36.46
-34.98
-37.39
-41.44
-43.03
-38.61
-27.63
-13.14
-0.10
7.55
9.37
8.62
10.21
17.57
30.64
46.02
59.16
66.90
68.98
67.71
66.36
67.29
71.11
77.04
83.84
90.55
96.74
102.04
105.72
106.67
103.87
97.07
87.21
76.08
65.63
57.25
51.52
48.15
46.01
43.07
36.71
24.70
6.61
-15.20
-35.70
-49.21
-52.03
-44.58
-31.49
-19.39
-13.55
-15.49
-22.80
-31.16
-36.98
-39.03
-38.08
-35.35
-31.16
-24.77
-15.43
-3.58
8.70
18.24
22.21
19.21
9.86
-3.58
-18.11
-30.84
-39.81
-44.39
-45.13
-43.29
-40.17
-36.58
-32.57
-27.73
-21.85
-15.31
-9.22
-4.77
-2.37
-1.08
1.05
5.89
13.98
23.81
32.31
36.34
34.34
27.32
18.34
10.87
6.87
5.83
5.25
2.55
-3.10
-10.00
-14.82
-14.44
-7.83
3.27
15.13
23.84
27.06
24.79
18.87
11.81
5.44
0.57
-3.02
-5.98
-8.93
-12.03
-14.85
-16.55
-16.39
-14.32
-11.35
-9.04
-8.51
-9.28
-9.24
-5.71
2.60
14.22
25.19
30.99
29.13
20.72
9.94
1.64
-1.29
0.91
5.63
9.87
12.01
12.32
12.28
13.23
15.43
18.05
19.72
19.47
17.17
13.50
9.49
6.05
3.61
2.31
2.10
2.65
3.28
3.16
1.60
-1.39
-5.07
-8.36
-10.51
-11.52
-12.02
-12.56
-12.97
-12.35
-9.71
-4.99
0.49
4.54
5.49
3.17
-0.98
-4.98
-7.87
-10.33
-14.00
-19.73
-26.54
-31.81
-33.11
-30.49
-27.68
-31.55
-49.78
-88.11
-148.09
-226.16
-314.03
-400.42
-473.42
-523.13
-543.95
-535.62
-502.71
-452.34
-391.63
-325.46
-256.26
-185.12
-113.05
-41.64
27.80
94.82
159.40
220.04
272.29
309.13
323.75
312.87
278.24
226.07
164.51
100.90
41.52
-7.71
-40.51
-50.94
-35.67
3.77
60.67
125.09
186.85
238.97
278.71
306.78
325.51
336.98
341.51
337.23
321.05
289.52
242.84
186.48
130.70
87.06
63.62
61.03
72.10
86.05
90.85
80.34
54.91
20.01
-16.68
-48.21
-70.22
-81.41
-81.20
-74.63
-65.84
-59.40
-59.98
-71.60
-96.24
-132.16
-172.91
-205.46
-223.14
-220.18
-197.52
-162.17
-123.07
-86.24
-52.02
-15.63
32.75
91.38
157.88
226.58
292.13
352.79
411.05
471.35
510.28
556.56
596.80
618.55
610.67
567.84
493.40
397.84
294.12
193.83
108.27
36.03
-22.37
-66.86
-98.21
-117.48
-127.09
-130.45
-128.86
-117.56
-95.86
-59.56
-7.29
56.57
124.25
186.10
233.23
261.37
272.93
269.69
257.28
241.48
225.39
211.61
201.67
185.93
158.05
116.95
63.75
4.11
-47.04
-87.96
-121.19
-148.93
-171.69
-188.55
-195.65
-192.60
-182.01
-168.72
-159.78
-159.78
-169.68
-187.59
-208.99
-227.46
-240.42
-248.92
-256.15
-267.70
-287.95
-318.68
-359.81
-409.20
-461.60
-514.74
-568.92
-625.83
-679.12
-722.41
-750.57
-761.34
-771.84
-783.11
-789.49
-784.42
-755.42
-700.69
-626.55
-543.03
-459.75
-382.18
-308.17
-234.55
-159.24
-82.31
-7.36
60.88
119.47
168.16
209.10
247.48
286.05
324.98
362.90
397.66
427.69
452.14
469.65
477.34
472.87
454.28
422.79
384.08
345.76
314.18
291.50
275.05
259.66
242.09
222.26
203.07
188.20
179.13
174.57
172.01
170.13
170.52
177.36
194.48
222.61
257.64
291.38
314.74
321.57
311.07
287.64
258.29
228.81
201.30
174.23
144.77
111.84
77.58
46.39
22.39
7.14
-1.01
-5.59
-9.86
-15.45
-22.36
-29.77
-37.02
-43.67
-49.13
-52.44
-52.57
-49.14
-43.15
-37.03
-33.70
-35.33
-42.23
-52.49
-62.81
-70.03
-72.55
-71.00
-67.78
-65.73
-66.68
-70.64
-75.98
-80.45
-82.40
-81.60
-79.05
-76.14
-73.69
-71.47
-68.45
-63.57
-56.57
-48.28
-40.31
-34.32
-31.26
-31.02
-32.57
-34.57
-35.98
-36.55
-36.69
-37.23
-38.95
-42.15
-46.37
-50.49
-53.11
-53.03
-49.76
-43.74
-36.21
-28.78
-22.81
-18.92
-16.64
-14.50
-10.42
-2.53
9.99
26.30
44.04
60.04
71.44
76.62
75.49
69.16
59.14
46.74
32.88
18.40
4.29
-8.14
-17.58
-23.28
-25.41
-25.04
-23.75
-22.96
-23.53
-25.57
-28.41
-30.97
-32.03
-30.80
-27.34
-22.68
-18.54
-16.60
-17.71
-21.36
-25.86
-29.00
-29.02
-25.34
-18.62
-10.39
-2.43
3.95
8.28
10.66
11.45
11.01
9.66
7.65
5.31
2.94
0.97
-0.10
0.03
1.26
3.06
4.70
5.78
6.37
6.68
7.07
7.76
8.50
8.78
8.25
6.94
5.58
4.80
4.10
2.81
0.78
-1.73
-3.80
-4.00
-1.03
6.61
19.32
34.90
50.75
65.11
76.62
84.85
90.52
95.02
101.05
110.25
120.51
129.04
134.03
134.07
128.99
120.36
111.36
107.96
115.75
135.30
164.46
198.97
231.53
254.67
263.82
247.21
200.29
144.14
93.40
50.32
17.91
-2.77
-13.63
-20.21
-31.24
-53.87
-95.84
-157.23
-226.00
-283.05
-314.97
-320.99
-310.94
-297.68
-288.12
-282.01
-276.24
-267.38
-254.34
-239.97
-228.13
-220.50
-215.87
-209.66
-197.45
-177.85
-151.75
-121.51
-90.51
-61.56
-35.36
-10.90
14.22
42.13
73.65
108.57
146.26
186.17
225.80
265.02
304.88
346.17
387.63
425.08
452.16
462.24
450.83
417.47
366.61
305.57
241.92
181.12
125.67
75.65
30.20
-11.04
-47.75
-79.19
-105.57
-128.46
-150.24
-172.72
-196.04
-218.48
-237.27
-250.24
-256.54
-257.00
-253.19
-246.13
-235.63
-220.59
-200.06
-174.39
-145.79
-117.67
-93.64
-76.08
-65.34
-59.77
-56.73
-53.70
-49.32
-43.57
-37.24
-31.01
-24.93
-18.36
-10.63
-1.85
6.87
13.92
18.15
19.63
19.73
20.21
22.35
26.41
31.95
38.50
46.01
54.74
64.68
75.12
84.88
92.86
98.71
102.85
106.00
108.46
109.79
109.19
106.17
101.17
95.56
91.07
89.00
89.75
92.78
96.88
100.58
102.44
101.33
96.83
89.37
80.13
70.50
61.42
52.99
44.85
36.76
28.88
21.43
13.78
4.09
-10.03
-29.84
-54.14
-79.05
-99.73
-112.92
-118.45
-119.13
-119.03
-121.40
-127.54
-136.88
-147.99
-158.95
-167.27
-169.46
-161.51
-140.38
-105.83
-61.63
-14.73
26.93
57.23
73.67
77.50
72.44
63.16
54.10
48.68
49.20
56.24
68.53
82.68
93.79
96.80
88.67
70.41
46.76
24.82
10.41
5.97
9.35
14.82
15.76
7.44
-10.66
-35.82
-62.80
-86.85
-103.83
-111.20
-108.46
-97.36
-82.26
-68.65
-63.80
-72.75
-97.83
-135.60
-178.71
-219.67
-254.11
-282.71
-308.39
-336.77
-370.98
-412.70
-460.33
-511.19
-563.72
-617.24
-671.30
-722.43
-768.66
-788.36
-764.93
-689.88
-568.22
-418.28
-263.70
-138.68
-48.85
9.34
41.79
50.63
37.19
6.97
-33.42
-74.04
-103.67
-111.64
-95.83
-60.89
-17.67
23.67
56.98
80.90
98.63
115.60
138.02
167.88
205.00
246.15
288.86
330.92
369.60
402.79
430.67
455.83
480.75
508.00
536.66
565.86
593.89
617.42
632.91
638.41
632.15
612.49
579.80
535.36
487.53
447.69
424.21
419.09
428.85
445.16
459.63
468.20
468.92
467.28
470.39
481.86
481.74
452.79
384.88
280.93
177.99
89.20
17.75
-36.95
-83.42
-123.17
-152.45
-167.38
-166.34
-151.76
-133.49
-119.56
-115.43
-123.60
-142.56
-166.96
-191.25
-211.49
-226.56
-240.61
-255.87
-272.54
-289.45
-303.84
-312.05
-311.57
-301.65
-283.59
-262.11
-240.80
-222.02
-207.05
-195.65
-186.49
-178.18
-169.78
-161.08
-153.43
-147.48
-143.28
-140.41
-137.95
-134.63
-129.29
-121.03
-109.46
-95.29
-79.86
-64.99
-52.61
-44.00
-39.45
-38.19
-38.83
-40.07
-41.09
-41.58
-41.27
-39.68
-36.06
-29.99
-21.87
-13.10
-5.50
-0.37
2.22
3.47
5.14
8.46
13.43
18.87
23.09
24.77
23.47
19.80
14.98
10.40
7.27
6.42
8.18
12.43
18.60
25.76
32.85
38.89
43.24
45.58
45.96
44.63
41.94
38.25
33.98
29.56
25.42
21.90
19.15
17.10
15.54
14.18
12.85
11.51
10.19
8.93
7.62
6.15
4.43
2.55
0.65
-1.26
-3.42
-6.19
-9.76
-13.77
-17.19
-18.68
-17.16
-12.45
-5.41
2.37
9.26
14.26
17.27
18.87
19.73
20.20
20.08
18.90
16.31
12.40
7.78
3.21
-0.77
-3.99
-6.70
-9.25
-11.81
-14.21
-16.17
-17.50
-18.37
-19.22
-20.52
-22.50
-25.01
-27.65
-30.03
-31.91
-33.23
-33.94
-33.85
-32.61
-29.89
-25.58
-19.92
-13.48
-6.95
-0.99
3.91
7.49
9.72
10.83
11.23
11.49
12.17
13.64
15.93
18.77
21.67
24.07
25.56
25.91
25.10
23.33
20.98
18.50
16.33
14.71
13.63
12.78
11.72
10.00
7.40
4.01
0.30
-2.97
-4.94
-4.92
-2.65
1.51
6.61
11.44
14.96
16.81
17.31
17.25
17.27
17.43
17.12
15.49
12.15
7.70
3.69
1.98
3.81
9.17
16.73
24.44
30.44
33.74
34.40
33.13
30.76
27.82
24.43
20.58
16.37
12.14
8.29
5.08
2.40
-0.13
-2.97
-6.32
-10.05
-13.68
-16.70
-18.81
-20.09
-21.03
-22.33
-24.63
-28.24
-32.97
-38.06
-42.40
-44.89
-44.81
-42.07
-37.28
-31.46
-25.58
-20.26
-15.58
-11.31
-7.12
-2.89
1.25
5.02
8.18
10.64
12.53
14.01
15.31
16.53
17.67
18.65
19.33
19.56
19.28
18.52
17.51
16.62
16.33
17.04
18.87
21.56
24.38
26.42
26.93
25.62
22.92
19.74
17.14
15.88
16.08
17.28
18.62
19.24
18.57
16.43
13.03
8.86
4.47
0.35
-3.18
-6.01
-8.35
-10.58
-13.13
-16.18
-19.41
-21.94
-22.60
-20.36
-14.88
-6.82
2.40
11.07
17.91
22.43
24.99
26.32
27.14
27.73
28.04
27.93
27.35
26.42
25.27
23.98
22.67
21.67
21.66
23.38
27.29
33.13
39.77
45.61
49.14
49.65
47.41
43.51
39.12
34.96
31.13
27.21
22.61
16.80
9.49
0.78
-8.61
-17.28
-23.21
-24.17
-18.63
-6.58
9.98
27.70
43.13
54.22
60.80
64.70
68.54
74.36
82.57
91.78
99.82
105.19
108.06
109.90
113.12
120.06
132.26
150.44
174.05
201.47
229.75
254.19
267.86
263.80
238.29
193.34
137.19
81.15
35.56
6.33
-4.56
-0.71
10.72
21.86
24.52
15.10
-6.98
-39.66
-78.52
-114.99
-141.73
-155.13
-156.97
-153.68
-152.76
-159.35
-173.72
-191.76
-207.66
-217.65
-221.00
-219.38
-215.08
-209.03
-200.67
-188.67
-171.92
-150.44
-125.89
-100.68
-76.95
-56.28
-39.94
-30.09
-29.85
-41.88
-66.28
-99.00
-131.50
-152.78
-153.49
-130.01
-87.23
-37.77
2.96
22.43
15.26
-15.43
-60.24
-107.62
-147.62
-174.90
-189.14
-192.45
-187.62
-177.19
-163.47
-149.12
-137.18
-129.89
-128.43
-132.67
-140.12
-147.41
-152.16
-154.26
-156.08
-161.01
-170.84
-179.11
-178.78
-163.03
-128.73
-78.54
-20.05
37.00
80.08
106.17
115.99
111.60
97.32
79.29
64.34
60.11
70.95
97.74
138.99
190.52
245.95
297.51
335.62
349.61
330.57
275.25
189.66
89.41
-5.38
-76.73
-114.05
-116.57
-91.41
-49.95
-3.91
36.58
63.42
70.74
56.25
23.16
-19.53
-60.09
-88.79
-101.87
-101.91
-94.41
-82.89
-67.24
-45.76
-18.49
10.40
34.24
48.80
55.83
62.34
77.30
105.38
144.28
188.11
231.18
271.12
309.04
346.34
375.40
386.95
373.28
333.58
277.42
219.84
174.72
150.57
148.75
164.92
192.51
227.04
260.43
285.86
297.31
291.25
267.89
229.88
181.09
127.12
73.24
22.89
-20.31
-55.19
-82.76
-105.04
-125.50
-148.13
-175.47
-208.94
-249.55
-295.06
-344.50
-397.44
-444.84
-478.69
-494.40
-491.15
-471.86
-455.06
-445.31
-443.08
-448.45
-462.26
-479.25
-496.24
-508.12
-508.10
-490.07
-448.99
-386.65
-310.23
-228.79
-151.09
-83.52
-28.30
15.42
49.99
80.11
109.52
141.52
178.54
220.13
261.75
296.07
315.00
312.27
286.93
242.56
186.61
128.25
75.33
32.09
-0.66
-24.56
-42.04
-54.38
-61.90
-64.03
-59.83
-48.57
-30.40
-6.51
20.49
46.55
66.79
76.62
73.59
59.05
38.21
18.11
4.77
0.79
5.00
14.47
27.58
45.76
72.73
111.59
161.63
217.51
271.34
316.49
350.81
377.34
402.03
430.09
463.17
498.80
532.42
559.97
579.63
591.70
597.21
596.19
587.21
567.97
536.81
493.95
441.70
383.76
323.95
265.29
209.55
157.65
110.22
67.92
31.25
0.24
-25.87
-48.52
-69.39
-90.08
-111.97
-136.24
-163.44
-192.69
-220.92
-243.23
-254.59
-252.44
-238.76
-220.02
-204.83
-200.19
-208.68
-228.15
-253.68
-280.22
-304.08
-322.45
-331.90
-327.70
-304.95
-261.30
-199.31
-127.04
-56.02
2.24
39.61
53.52
47.19
28.14
5.86
-10.84
-16.04
-8.01
10.89
35.63
60.73
81.83
96.45
103.50
102.35
92.27
72.44
42.44
2.80
-44.34
-95.13
-144.21
-185.79
-215.41
-231.98
-238.81
-242.77
-251.48
-270.32
-300.61
-339.94
-384.01
-428.52
-469.97
-504.91
-529.29
-538.72
-529.98
-502.92
-460.89
-409.20
-352.43
-292.34
-228.54
-161.09
-93.33
-33.10
9.05
23.55
5.64
-42.54
-112.01
-189.40
-260.39
-313.21
-341.03
-342.71
-322.02
-285.75
-241.31
-194.81
-150.19
-109.37
-73.03
-41.41
-14.56
8.06
27.87
47.05
67.80
91.43
117.82
145.61
172.87
198.18
221.26
242.85
264.02
285.17
305.45
322.93
335.50
341.90
342.03
336.49
325.52
308.53
284.54
253.61
218.14
183.04
154.34
136.99
132.95
140.55
155.34
171.74
184.54
189.81
185.18
170.01
145.54
115.04
83.25
55.25
34.88
23.54
19.99
21.21
24.11
26.99
30.12
35.20
43.96
56.86
72.42
87.77
99.79
106.37
106.98
102.42
94.30
84.38
74.46
66.32
61.63
61.37
65.29
71.57
77.36
79.70
76.63
67.76
54.14
37.68
20.32
3.42
-12.58
-28.03
-43.69
-60.08
-76.89
-92.81
-106.06
-115.17
-119.83
-121.16
-121.23
-122.16
-125.17
-130.09
-135.33
-138.65
-137.94
-132.06
-121.32
-107.24
-91.76
-76.33
-61.20
-45.58
-28.45
-9.52
10.30
29.30
45.88
59.43
70.55
80.48
90.24
100.10
109.48
117.21
121.68
120.72
111.71
92.34
61.99
23.15
-18.33
-54.69
-79.36
-90.03
-89.87
-86.29
-87.25
-97.55
-116.72
-140.02
-161.34
-176.73
-186.02
-192.14
-198.69
-207.37
-216.87
-223.50
-223.08
-212.82
-191.95
-161.27
-122.04
-75.30
-22.31
34.31
89.73
137.12
169.79
184.09
181.69
169.92
159.69
161.87
183.54
225.59
282.52
344.11
398.40
434.80
446.77
433.15
397.84
348.16
292.13
235.94
182.72
132.52
83.32
32.54
-21.80
-80.00
-139.72
-195.54
-239.65
-264.03
-263.65
-239.23
-197.80
-150.89
-110.54
-85.37
-78.26
-86.72
-104.95
-126.46
-145.72
-158.46
-161.04
-150.00
-122.54
-78.00
-19.48
45.52
106.33
152.26
176.23
177.25
160.56
135.12
109.98
91.10
80.13
75.22
73.01
70.75
67.40
63.75
61.85
64.03
71.88
85.35
102.31
118.94
131.04
135.46
131.00
118.39
99.21
75.03
47.12
17.12
-12.11
-36.49
-51.80
-55.61
-48.57
-34.52
-18.94
-6.82
-0.85
-1.01
-5.29
-11.20
-16.85
-21.45
-25.02
-27.89
-30.32
-32.43
-34.25
-35.79
-36.96
-37.46
-36.81
-34.52
-30.45
-24.89
-18.57
-12.40
-7.22
-3.67
-2.27
-3.61
-8.27
-16.49
-27.65
-39.92
-50.52
-56.55
-56.18
-49.52
-38.60
-26.55
-16.17
-8.80
-4.02
-0.35
3.62
8.33
13.13
16.97
19.26
20.26
20.65
20.40
18.14
11.38
-2.14
-22.77
-48.15
-73.86
-95.21
-109.35
-116.25
-118.25
-118.41
-118.83
-119.77
-119.91
-117.39
-110.79
-99.67
-84.45
-66.11
-45.93
-25.45
-6.54
8.91
19.35
24.25
24.41
21.94
19.62
19.88
23.75
30.36
37.25
41.39
40.57
34.30
23.98
12.00
0.64
-8.97
-17.07
-24.65
-32.48
-40.30
-46.69
-49.68
-47.77
-40.81
-30.28
-18.92
-9.68
-4.71
-4.60
-8.42
-14.31
-20.52
-26.10
-31.11
-36.01
-41.00
-45.60
-49.04
-51.01
-52.30
-54.63
-59.70
-67.98
-78.08
-87.41
-93.87
-97.37
-100.26
-106.01
-116.77
-131.57
-146.00
-153.93
-150.05
-132.10
-101.21
-60.69
-13.94
37.12
91.95
149.94
208.92
264.62
311.63
345.28
363.66
368.33
363.81
355.34
346.29
336.99
325.11
307.17
280.48
244.37
199.88
149.01
93.30
33.69
-28.26
-88.56
-140.57
-176.72
-191.56
-184.50
-159.90
-125.55
-89.92
-60.28
-40.15
-28.83
-23.05
-18.17
-13.19
-8.40
-3.23
4.72
18.61
42.09
76.87
120.98
168.06
208.83
234.66
240.64
227.12
199.30
164.82
130.23
98.57
69.05
38.54
4.25
-34.72
-76.92
-118.92
-155.92
-182.74
-194.87
-189.76
-168.04
-133.92
-94.58
-58.44
-32.74
-21.19
-23.17
-34.27
-48.36
-59.88
-65.56
-65.12
-60.63
-55.08
-50.81
-48.67
-48.08
-47.88
-47.06
-45.09
-41.89
-37.56
-32.39
-27.09
-23.25
-23.12
-29.00
-41.99
-61.10
-83.03
-102.92
-115.92
-118.75
-110.70
-93.76
-71.83
-49.54
-31.15
-19.71
-16.48
-20.91
-30.89
-43.47
-55.65
-65.33
-71.54
-74.37
-74.40
-72.26
-68.36
-63.19
-57.62
-53.15
-51.66
-54.80
-63.42
-77.34
-95.34
-115.46
-135.17
-151.69
-162.33
-164.94
-158.43
-143.04
-120.31
-92.75
-63.54
-36.02
-13.30
2.33
10.12
11.27
8.78
6.48
7.61
13.33
22.36
31.93
39.44
43.93
46.37
48.70
52.31
57.03
61.35
63.62
63.38
61.84
61.28
63.71
69.67
78.07
86.79
93.89
98.50
100.85
101.79
102.20
102.63
103.39
104.66
106.44
108.41
109.77
109.58
107.12
102.43
96.44
90.53
85.94
83.14
81.59
80.02
76.92
71.18
62.55
51.76
40.39
30.33
23.23
20.06
21.05
25.94
34.33
45.94
60.45
77.20
94.92
111.93
126.63
138.05
146.16
151.58
155.02
156.83
156.87
155.02
151.78
148.63
147.75
151.30
160.44
174.83
192.52
210.59
225.99
236.39
240.74
239.30
233.29
224.37
213.99
203.16
192.29
181.47
170.67
160.00
149.72
140.20
131.61
123.86
116.65
109.71
102.94
96.46
90.48
85.07
80.08
75.09
69.55
63.03
55.31
46.47
36.83
26.87
17.07
7.82
-0.68
-8.44
-15.69
-22.77
-30.01
-37.62
-45.52
-53.35
-60.51
-66.37
-70.61
-73.35
-75.21
-77.12
-79.95
-84.07
-89.23
-94.64
-99.42
-103.21
-106.54
-110.88
-118.21
-130.29
-147.91
-170.57
-196.79
-224.64
-252.60
-280.13
-307.82
-337.19
-370.45
-410.13
-458.32
-515.40
-578.70
-641.92
-696.08
-732.22
-744.66
-733.36
-703.85
-664.79
-624.22
-586.67
-552.56
-519.80
-486.48
-452.77
-420.97
-393.83
-372.53
-355.42
-338.55
-317.41
-289.12
-253.78
-214.77
-177.20
-145.52
-121.54
-103.43
-86.64
-65.74
-36.82
1.38
47.68
99.35
152.62
202.52
242.89
267.65
273.37
262.59
244.51
231.85
235.12
257.03
290.99
324.75
347.12
354.09
350.93
349.16
360.50
391.07
438.65
493.85
543.92
577.32
587.04
572.09
536.66
487.71
431.79
372.99
312.41
249.33
183.44
116.27
51.47
-6.22
-52.04
-81.79
-92.15
-80.38
-44.94
13.34
89.97
176.18
259.87
328.30
371.40
384.62
369.87
334.45
288.21
240.32
196.98
160.45
129.61
101.44
72.42
39.43
0.63
-44.28
-94.08
-146.32
-198.32
-248.06
-294.74
-339.19
-383.82
-431.96
-486.87
-550.03
-619.45
-688.88
-748.70
-788.73
-801.96
-787.25
-749.73
-698.61
-643.43
-590.82
-543.21
-499.86
-458.94
-419.47
-381.85
-347.09
-315.67
-286.96
-259.49
-231.92
-203.75
-175.56
-148.77
-124.83
-104.53
-87.77
-73.66
-60.93
-48.50
-35.85
-23.00
-10.44
1.25
11.64
20.61
28.40
35.55
42.80
50.92
60.53
71.82
84.39
97.28
109.20
119.00
126.23
131.47
136.12
141.78
149.47
159.00
169.11
178.28
185.84
192.42
199.53
208.29
218.34
227.66
233.65
234.68
231.13
224.48
216.10
205.96
193.08
177.14
160.37
147.85
145.46
156.27
177.78
202.18
219.64
223.36
213.10
195.25
179.08
171.71
174.61
183.42
191.46
193.88
190.43
185.27
184.25
191.55
207.64
229.76
253.79
276.16
294.26
305.77
307.86
296.68
268.39
220.30
151.86
64.53
-38.40
-151.92
-269.02
-380.73
-477.19
-549.83
-593.97
-610.35
-604.63
-584.73
-557.63
-527.01
-492.90
-453.33
-406.36
-351.72
-290.95
-226.61
-161.18
-96.34
-32.94
28.68
88.35
145.84
200.82
253.18
303.40
352.56
401.80
451.33
499.46
542.47
575.60
594.92
599.30
591.09
575.38
557.74
542.08
529.39
518.21
506.39
492.90
478.70
466.01
456.58
450.09
443.73
433.24
414.91
387.34
352.20
313.36
275.25
241.13
212.43
189.18
171.03
158.09
150.83
149.37
152.51
157.35
159.85
155.98
143.09
120.46
89.26
51.72
10.09
-34.07
-80.21
-128.48
-179.45
-233.44
-289.89
-346.68
-399.75
-443.60
-472.58
-482.89
-474.16
-449.89
-416.33
-380.20
-346.52
-317.48
-292.71
-270.67
-249.95
-229.98
-210.77
-192.28
-173.97
-154.99
-134.73
-113.39
-92.03
-72.26
-55.53
-42.45
-32.60
-24.75
-17.45
-9.73
-1.58
6.03
11.59
13.85
12.37
7.76
1.41
-5.19
-10.99
-15.65
-19.39
-22.60
-25.52
-28.20
-30.59
-32.77
-34.98
-37.44
-40.13
-42.68
-44.48
-44.92
-43.71
-41.02
-37.46
-33.84
-30.87
-28.92
-27.97
-27.74
-27.85
-28.11
-28.48
-29.06
-29.90
-30.90
-31.89
-32.70
-33.34
-33.99
-34.90
-36.19
-37.78
-39.24
-39.96
-39.21
-36.49
-31.70
-25.29
-18.18
-11.46
-6.04
-2.36
-0.33
0.45
0.38
-0.29
-1.46
-2.99
-4.59
-5.80
-6.28
-5.97
-5.22
-4.61
-4.71
-5.87
-8.06
-10.99
-14.26
-17.48
-20.37
-22.76
-24.58
-25.93
-27.02
-28.13
-29.50
-31.16
-32.85
-34.07
-34.28
-33.09
-30.44
-26.60
-22.03
-17.19
-12.44
-8.08
-4.39
-1.62
0.07
0.71
0.58
0.11
-0.36
-0.61
-0.64
-0.47
-0.07
0.66
1.82
3.29
4.71
5.55
5.31
3.75
1.07
-2.23
-5.45
-7.98
-9.50
-10.04
-9.87
-9.35
-8.75
-8.16
-7.60
-7.16
-7.08
-7.65
-9.07
-11.18
-13.42
-14.97
-15.05
-13.15
-9.23
-3.61
3.19
10.53
17.88
24.71
30.57
34.96
37.41
37.54
35.22
30.81
25.16
19.54
15.26
13.31
13.99
16.83
20.77
24.53
27.08
27.87
27.00
24.98
22.58
20.54
19.38
19.30
20.14
21.48
22.78
23.53
23.41
22.47
21.10
20.08
20.32
22.59
27.24
33.99
41.98
49.97
56.68
61.05
62.52
61.05
57.13
51.45
44.70
37.25
29.05
19.73
8.96
-3.21
-16.13
-28.65
-39.44
-47.41
-52.06
-53.55
-52.63
-50.49
-48.49
-47.92
-49.64
-53.75
-59.46
-65.30
-69.61
-71.15
-69.49
-65.13
-59.15
-52.75
-46.87
-42.02
-38.28
-35.38
-32.84
-30.03
-26.46
-21.99
-17.08
-12.74
-10.06
-9.66
-11.15
-13.20
-14.02
-12.19
-7.29
-0.08
7.89
14.93
19.84
22.13
21.94
19.70
15.95
11.22
6.11
1.39
-2.22
-4.13
-4.31
-3.28
-2.03
-1.55
-2.36
-4.19
-5.90
-5.85
-2.59
4.53
14.78
26.10
35.60
40.39
38.65
30.36
17.36
2.99
-9.01
-15.42
-14.49
-6.23
7.57
23.79
38.57
48.16
49.88
42.75
27.89
8.16
-12.71
-31.07
-44.22
-50.80
-50.86
-45.61
-37.02
-27.24
-18.09
-10.49
-4.33
1.27
7.29
14.12
21.31
27.64
31.65
32.05
28.01
19.21
6.05
-10.18
-27.10
-41.52
-50.26
-51.07
-43.46
-28.79
-9.81
10.24
28.40
42.52
51.39
54.66
52.83
47.01
38.73
29.48
20.41
12.19
4.97
-1.28
-6.65
-11.12
-14.67
-17.37
-19.45
-21.23
-23.09
-25.26
-27.82
-30.61
-33.23
-35.11
-35.62
-34.28
-31.01
-26.15
-20.45
-14.69
-9.34
-4.33
0.83
6.77
13.77
21.45
28.79
34.48
37.47
37.40
34.64
30.31
25.86
22.67
21.76
23.58
27.96
34.23
41.29
47.81
52.66
55.24
55.73
55.04
54.55
55.61
59.27
65.83
74.67
84.83
95.41
105.92
116.22
126.26
135.74
144.05
150.03
152.10
149.15
141.02
128.51
112.85
94.91
74.68
51.79
25.64
-4.13
-36.53
-69.43
-100.11
-126.30
-146.77
-161.34
-170.14
-170.32
-159.64
-137.07
-103.95
-64.14
-22.64
16.19
47.99
73.31
94.07
111.15
124.60
134.02
138.88
139.18
135.09
127.18
116.76
105.26
92.75
78.16
60.09
37.40
9.14
-24.98
-64.46
-107.85
-153.20
-200.06
-249.75
-304.12
-364.64
-432.73
-508.79
-592.68
-684.20
-769.00
-833.23
-866.58
-863.20
-822.00
-747.60
-648.25
-535.25
-421.55
-325.18
-249.66
-193.38
-151.21
-116.30
-83.83
-50.29
-13.53
28.17
73.85
119.97
159.88
186.76
205.55
218.69
228.32
237.53
243.06
245.34
246.06
245.97
245.42
244.53
241.66
235.62
225.93
212.70
197.57
182.47
168.30
155.50
144.18
133.04
121.10
107.89
93.37
78.64
65.02
53.33
44.14
37.73
33.37
30.35
28.06
25.88
23.68
21.37
18.59
14.89
9.81
2.54
-7.48
-20.59
-36.93
-56.13
-77.63
-100.52
-123.56
-145.14
-163.68
-177.55
-185.48
-186.73
-181.09
-168.98
-151.17
-128.53
-101.81
-71.50
-38.03
-1.87
36.29
75.44
114.50
152.44
188.59
222.70
254.89
285.62
315.60
345.72
376.67
408.43
439.66
467.42
487.80
497.06
493.10
476.31
449.48
416.62
381.61
347.03
314.04
282.80
253.25
225.45
199.51
175.29
152.22
129.53
106.69
83.79
61.51
40.75
22.25
6.29
-7.26
-18.71
-28.29
-36.06
-42.06
-46.34
-49.12
-50.66
-51.18
-50.88
-49.96
-48.83
-48.09
-48.44
-50.39
-54.03
-58.97
-64.47
-69.75
-74.17
-77.28
-78.80
-78.54
-76.40
-72.53
-67.39
-61.70
-56.18
-51.24
-46.88
-42.70
-38.35
-33.77
-29.37
-25.77
-23.42
-22.31
-21.91
-21.55
-20.86
-20.01
-19.65
-20.55
-23.08
-26.96
-31.37
-35.25
-37.81
-38.74
-38.19
-36.59
-34.38
-31.84
-29.08
-26.21
-23.41
-20.97
-19.22
-18.39
-18.46
-19.13
-19.85
-19.97
-18.94
-16.46
-12.60
-7.78
-2.66
2.04
5.76
8.14
9.14
8.95
7.90
6.33
4.52
2.62
0.65
-1.38
-3.46
-5.49
-7.26
-8.58
-9.36
-9.67
-9.75
-9.88
-10.32
-11.16
-12.35
-13.76
-15.16
-16.30
-16.98
-17.11
-16.77
-16.21
-15.82
-15.97
-16.96
-18.88
-21.60
-24.76
-27.86
-30.28
-31.46
-30.99
-28.78
-25.09
-20.50
-15.74
-11.50
-8.26
-6.28
-5.58
-5.99
-7.18
-8.79
-10.41
-11.77
-12.72
-13.22
-13.33
-13.11
-12.57
-11.66
-10.33
-8.57
-6.49
-4.25
-2.09
-0.25
1.05
1.69
1.64
0.97
-0.21
-1.77
-3.66
-5.89
-8.50
-11.48
-14.65
-17.67
-20.07
-21.32
-21.02
-19.00
-15.43
-10.74
-5.59
-0.67
3.44
6.39
8.10
8.72
8.48
7.69
6.62
5.47
4.40
3.54
2.92
2.53
2.29
2.06
1.71
1.15
0.36
-0.65
-1.90
-3.40
-5.19
-7.25
-9.56
-12.01
-14.54
-17.06
-19.56
-22.04
-24.57
-27.27
-30.25
-33.54
-37.02
-40.32
-42.87
-44.03
-43.33
-40.69
-36.51
-31.55
-26.70
-22.65
-19.75
-17.97
-17.03
-16.57
-16.31
-16.09
-15.81
-15.39
-14.70
-13.65
-12.12
-10.15
-7.84
-5.44
-3.16
-1.22
0.28
1.37
2.12
2.63
3.00
3.24
3.33
3.18
2.75
2.04
1.16
0.30
-0.38
-0.84
-1.21
-1.77
-2.79
-4.42
-6.55
-8.79
-10.59
-11.44
-10.95
-8.96
-5.55
-0.97
4.37
9.97
15.36
20.19
24.36
28.03
31.48
34.94
38.46
41.84
44.82
47.19
49.02
50.59
52.35
54.67
57.70
61.35
65.31
69.21
72.64
75.24
76.72
76.85
75.58
72.98
69.30
64.85
59.90
54.63
49.05
43.07
36.49
29.07
20.63
11.01
0.18
-11.69
-24.31
-37.28
-50.24
-62.96
-75.31
-87.16
-98.20
-107.87
-115.51
-120.46
-122.31
-120.86
-116.05
-107.77
-95.96
-80.77
-62.82
-43.49
-24.65
-8.36
3.84
11.36
14.68
15.06
14.00
12.66
11.61
10.89
10.34
9.92
9.82
10.32
11.57
13.35
15.17
16.44
16.79
16.23
15.20
14.29
14.05
14.80
16.53
18.91
21.37
23.13
23.41
21.63
17.62
11.78
5.07
-1.31
-6.15
-8.70
-8.71
-6.56
-2.99
1.07
4.72
7.28
8.34
7.87
6.19
3.85
1.54
-0.20
-1.06
-1.07
-0.50
0.30
1.09
1.82
2.62
3.72
5.26
7.26
9.47
11.52
13.01
13.65
13.33
12.18
10.47
8.54
6.66
4.96
3.39
1.79
-0.01
-2.11
-4.41
-6.64
-8.37
-9.15
-8.60
-6.59
-3.20
1.21
6.14
11.00
15.22
18.34
20.04
20.19
18.88
16.30
12.82
8.82
4.70
0.77
-2.78
-5.88
-8.58
-10.93
-12.99
-14.81
-16.44
-17.96
-19.50
-21.23
-23.27
-25.67
-28.36
-31.22
-34.05
-36.58
-38.53
-39.59
-39.56
-38.41
-36.39
-33.95
-31.52
-29.31
-27.07
-24.19
-19.97
-13.97
-6.34
2.16
10.40
17.25
21.95
24.30
24.55
23.17
20.71
17.62
14.37
11.43
9.33
8.54
9.34
11.66
15.15
19.20
23.25
26.85
29.79
32.01
33.58
34.56
35.05
35.11
34.81
34.21
33.31
32.03
30.21
27.66
24.29
20.16
15.61
11.20
7.56
5.22
4.43
5.06
6.63
8.54
10.16
11.05
10.97
9.87
7.84
5.09
1.89
-1.44
-4.61
-7.33
-9.43
-10.87
-11.67
-12.00
-12.02
-11.93
-11.83
-11.79
-11.74
-11.59
-11.23
-10.64
-9.90
-9.19
-8.67
-8.45
-8.54
-8.82
-9.11
-9.26
-9.12
-8.58
-7.54
-5.93
-3.69
-0.87
2.37
5.77
8.99
11.75
13.87
15.33
16.18
16.50
16.34
15.67
14.48
12.85
10.98
9.20
7.85
7.10
6.94
7.13
7.28
7.04
6.21
4.83
3.09
1.20
-0.70
-2.61
-4.61
-6.81
-9.18
-11.62
-13.95
-15.97
-17.50
-18.40
-18.50
-17.63
-15.71
-12.79
-9.20
-5.45
-2.12
0.34
1.70
2.07
1.71
0.99
0.28
-0.16
-0.17
0.26
0.98
1.76
2.34
2.56
2.40
2.00
1.53
1.12
0.80
0.47
0.03
-0.60
-1.45
-2.47
-3.68
-5.05
-6.57
-8.14
-9.61
-10.75
-11.28
-10.98
-9.73
-7.56
-4.68
-1.42
1.84
4.78
7.23
9.19
10.79
12.17
13.42
14.56
15.48
16.09
16.35
16.28
16.01
15.64
15.21
14.67
13.91
12.79
11.26
9.38
7.28
5.12
2.99
0.92
-1.11
-3.07
-4.94
-6.67
-8.22
-9.59
-10.76
-11.67
-12.15
-12.03
-11.14
-9.49
-7.23
-4.69
-2.26
-0.25
1.15
1.88
1.99
1.57
0.75
-0.34
-1.50
-2.53
-3.19
-3.37
-3.04
-2.34
-1.47
-0.66
-0.07
0.20
0.12
-0.29
-0.95
-1.76
-2.56
-3.23
-3.72
-4.10
-4.51
-5.15
-6.07
-7.20
-8.29
-9.00
-9.04
-8.23
-6.61
-4.39
-1.93
0.39
2.27
3.53
4.15
4.22
3.87
3.25
2.50
1.71
1.01
0.50
0.25
0.29
0.56
0.92
1.22
1.29
1.05
0.51
-0.23
-0.97
-1.55
-1.89
-2.03
-2.14
-2.38
-2.88
-3.61
-4.46
-5.32
-6.08
-6.70
-7.13
-7.24
-6.92
-6.03
-4.60
-2.78
-0.84
0.88
2.16
2.86
2.96
2.51
1.60
0.39
-0.94
-2.15
-3.03
-3.44
-3.37
-2.89
-2.18
-1.43
-0.81
-0.44
-0.39
-0.67
-1.22
-1.96
-2.78
-3.56
-4.19
-4.60
-4.78
-4.83
-4.90
-5.22
-5.90
-6.95
-8.12
-9.05
-9.31
-8.61
-6.92
-4.50
-1.83
0.58
2.35
3.34
3.64
3.46
3.00
2.41
1.73
0.97
0.19
-0.51
-0.99
-1.14
-0.95
-0.50
0.05
0.50
0.69
0.54
0.04
-0.70
-1.54
-2.34
-3.03
-3.60
-4.06
-4.47
-4.84
-5.19
-5.58
-6.05
-6.65
-7.35
-8.05
-8.56
-8.64
-8.07
-6.76
-4.79
-2.39
0.04
2.11
3.51
4.11
3.96
3.28
2.29
1.21
0.15
-0.80
-1.53
-1.97
-2.05
-1.76
-1.23
-0.62
-0.10
0.25
0.41
0.43
0.37
0.21
-0.09
-0.58
-1.21
-1.84
-2.25
-2.23
-1.71
-0.80
0.18
0.84
0.88
0.38
-0.15
0.25
2.69
8.10
16.81
28.29
41.23
53.82
64.23
71.07
73.69
72.29
67.80
61.50
54.66
48.10
41.94
35.66
28.34
19.18
7.91
-5.01
-18.45
-31.02
-41.32
-48.38
-51.88
-52.13
-49.97
-46.39
-42.24
-37.90
-33.26
-27.93
-21.58
-14.25
-6.36
1.37
8.26
13.93
18.37
21.86
24.90
28.11
32.24
38.14
46.52
57.76
71.64
87.32
103.51
118.80
132.10
142.85
150.96
156.28
158.17
155.16
145.17
126.16
96.97
57.91
10.77
-41.60
-95.92
-148.81
-196.97
-237.13
-266.26
-282.14
-284.04
-273.24
-252.97
-227.67
-201.79
-178.64
-159.65
-144.01
-128.89
-110.19
-84.00
-48.36
-4.77
41.42
82.10
108.87
115.93
102.21
71.69
32.24
-6.74
-36.67
-51.38
-48.02
-27.41
6.02
44.81
79.97
103.24
109.37
97.49
70.81
34.97
-4.06
-41.60
-74.79
-102.12
-122.50
-134.64
-137.25
-129.81
-113.30
-90.43
-65.07
-41.07
-21.09
-6.07
4.50
11.59
15.69
16.29
12.44
3.78
-8.53
-21.73
-32.37
-37.64
-36.41
-29.48
-19.00
-7.44
3.06
11.17
16.27
18.31
17.63
14.90
11.01
6.95
3.58
1.57
1.26
2.68
5.53
9.29
13.26
16.78
19.40
21.04
21.96
22.62
23.50
24.92
26.90
29.25
31.64
33.75
35.38
36.46
36.95
36.78
35.82
34.00
31.45
28.64
26.24
24.93
25.02
26.27
27.97
29.19
29.22
27.84
25.31
22.18
18.92
15.76
12.59
9.12
5.10
0.45
-4.65
-9.79
-14.38
-17.77
-19.38
-18.80
-15.97
-11.21
-5.17
1.25
7.17
11.85
14.83
16.08
15.84
14.61
12.96
11.38
10.14
9.34
8.91
8.69
8.54
8.34
7.98
7.41
6.58
5.51
4.30
3.08
1.94
0.90
-0.10
-1.19
-2.39
-3.71
-5.06
-6.39
-7.72
-9.13
-10.76
-12.64
-14.69
-16.64
-18.09
-18.64
-17.98
-16.01
-12.82
-8.68
-4.02
0.64
4.71
7.71
9.37
9.74
9.17
8.22
7.39
7.03
7.19
7.71
8.39
9.03
9.54
9.88
10.02
9.90
9.42
8.55
7.30
5.76
4.06
2.33
0.66
-0.89
-2.27
-3.48
-4.49
-5.31
-6.01
-6.66
-7.42
-8.44
-9.83
-11.57
-13.48
-15.16
-16.12
-15.85
-14.03
-10.61
-5.92
-0.55
4.78
9.49
13.26
16.04
18.00
19.32
20.11
20.41
20.25
19.76
19.13
18.54
18.12
17.85
17.66
17.47
17.26
17.07
16.93
16.88
16.87
16.90
16.92
16.93
16.85
16.59
16.01
15.08
13.86
12.55
11.36
10.41
9.70
9.10
8.51
7.84
7.09
6.20
5.08
3.55
1.49
-1.08
-3.93
-6.64
-8.80
-10.07
-10.31
-9.58
-8.10
-6.11
-3.89
-1.69
0.29
1.88
3.00
3.65
3.88
3.80
3.52
3.15
2.73
2.31
1.95
1.72
1.76
2.15
2.90
3.81
4.54
4.68
3.93
2.21
-0.29
-3.17
-5.97
-8.33
-10.01
-11.01
-11.40
-11.33
-10.93
-10.25
-9.37
-8.33
-7.26
-6.28
-5.51
-5.00
-4.75
-4.75
-4.99
-5.49
-6.21
-7.05
-7.86
-8.48
-8.89
-9.15
-9.38
-9.62
-9.73
-9.52
-8.83
-7.64
-6.14
-4.61
-3.26
-2.18
-1.31
-0.51
0.30
1.21
2.31
3.82
6.06
9.35
13.86
19.48
25.78
32.17
37.98
42.70
46.11
48.21
49.15
49.08
48.05
46.02
42.99
39.15
34.95
31.01
27.89
25.85
24.70
23.96
23.08
21.82
20.35
19.18
18.84
19.62
21.37
23.68
26.10
28.47
30.96
34.05
38.26
43.98
51.25
59.69
68.55
76.87
83.80
88.87
92.29
94.95
98.14
103.07
110.10
118.71
127.49
134.61
138.45
138.09
133.69
126.78
120.19
117.04
119.85
129.22
142.96
156.40
163.86
160.65
144.67
117.01
80.71
40.07
-0.77
-38.66
-71.84
-100.12
-124.93
-148.79
-174.21
-203.15
-235.62
-269.83
-303.23
-333.85
-361.12
-385.58
-407.94
-423.05
-425.01
-408.67
-372.50
-320.31
-259.93
-199.88
-146.10
-100.61
-62.24
-29.21
-0.40
23.88
42.32
53.69
57.74
55.96
51.10
46.48
44.26
45.28
48.67
52.47
54.62
53.52
48.32
38.53
24.34
7.01
-10.59
-23.96
-28.30
-20.56
-1.41
24.61
50.29
68.00
73.70
68.22
56.08
43.05
34.24
31.58
35.07
42.93
52.09
58.66
58.55
48.59
27.76
-2.04
-36.35
-68.89
-93.43
-105.13
-101.67
-83.91
-55.81
-23.48
6.51
29.16
42.42
47.43
47.56
46.71
47.51
50.61
55.01
58.01
57.92
54.42
48.42
41.48
35.01
29.80
26.05
23.57
22.18
21.81
22.34
23.46
24.78
25.99
26.95
27.34
26.08
21.09
9.88
-9.33
-36.23
-67.85
-99.21
-124.93
-141.03
-145.95
-140.57
-127.21
-108.75
-87.92
-67.15
-48.60
-34.01
-24.39
-19.69
-18.73
-19.58
-20.34
-19.79
-17.84
-15.41
-13.95
-14.65
-17.77
-22.28
-26.08
-26.75
-22.59
-13.38
-0.48
13.74
26.93
37.67
45.90
52.62
59.23
66.75
75.42
84.60
93.18
99.99
104.17
105.27
103.18
97.99
89.87
79.13
66.29
52.05
37.18
22.27
7.59
-6.86
-21.10
-34.79
-47.09
-56.79
-62.86
-65.06
-64.32
-62.58
-62.20
-65.04
-71.74
-81.53
-92.45
-102.06
-108.20
-109.48
-105.48
-96.67
-84.18
-69.60
-54.83
-41.81
-32.14
-26.52
-24.49
-24.23
-23.04
-18.29
-8.41
6.35
23.99
41.58
56.49
67.45
74.94
80.85
87.35
95.64
105.34
114.68
121.48
124.45
123.85
121.64
120.71
123.73
131.95
144.76
160.04
175.13
187.79
196.21
199.66
198.34
193.04
184.64
173.50
158.91
139.15
112.14
76.03
32.08
-13.68
-50.71
-67.05
-54.21
-11.57
52.23
121.60
177.67
205.85
200.60
166.16
113.15
52.99
-6.39
-61.81
-113.61
-165.63
-221.52
-283.17
-349.88
-418.64
-484.96
-543.43
-588.27
-602.43
-574.72
-505.55
-409.06
-305.77
-212.30
-136.40
-78.65
-36.38
-6.57
11.52
19.50
20.89
21.27
25.99
38.40
58.40
83.26
109.60
134.12
156.64
179.59
206.54
239.76
278.26
317.45
351.21
374.29
379.55
364.98
332.71
287.97
237.63
188.78
147.29
117.02
98.33
87.90
80.77
71.84
58.22
40.15
20.40
1.46
-16.05
-34.79
-58.79
-90.48
-129.21
-171.37
-212.23
-247.84
-276.87
-299.66
-318.29
-334.28
-347.79
-358.32
-365.25
-367.99
-365.28
-355.90
-331.13
-287.16
-226.47
-157.65
-91.50
-36.12
3.64
32.14
55.42
78.98
105.88
138.44
177.61
222.24
268.03
307.51
332.45
336.15
317.27
280.12
234.04
189.24
152.66
125.33
103.00
79.93
51.61
17.51
-20.01
-56.32
-85.22
-100.54
-98.33
-78.59
-45.59
-7.59
26.04
47.25
52.67
45.02
32.18
23.95
27.25
45.24
76.18
114.88
154.25
187.92
212.08
225.90
230.49
227.90
220.46
207.75
190.26
168.88
145.08
120.80
97.91
76.42
54.96
31.89
5.49
-23.74
-52.76
-76.77
-91.26
-93.28
-84.66
-70.10
-54.63
-43.53
-39.61
-43.21
-53.14
-67.86
-85.11
-105.61
-130.52
-159.86
-194.56
-234.64
-278.68
-323.84
-366.12
-399.89
-423.78
-438.62
-431.99
-396.09
-329.72
-239.88
-139.44
-53.23
14.85
65.50
99.78
117.40
118.13
99.71
61.62
6.13
-61.64
-128.36
-184.78
-225.26
-248.49
-258.75
-262.71
-266.05
-272.27
-281.78
-291.83
-300.05
-302.38
-293.56
-270.50
-234.01
-188.74
-145.40
-108.86
-80.97
-62.57
-52.32
-47.75
-47.26
-50.56
-57.25
-66.25
-74.79
-79.63
-78.86
-71.80
-58.84
-40.65
-20.59
0.24
22.30
47.33
76.41
108.98
142.92
175.06
202.02
221.33
232.71
237.59
238.76
238.61
238.54
238.65
238.11
235.99
232.22
228.46
227.46
232.31
244.89
265.10
290.78
318.34
344.06
365.42
382.26
396.70
412.66
434.49
465.18
504.40
547.28
584.68
605.31
599.50
562.91
498.71
417.07
332.06
257.26
201.87
168.79
154.98
153.15
154.16
149.90
135.66
111.78
83.52
58.92
45.31
45.96
58.73
77.18
93.54
101.78
99.10
85.51
62.08
29.59
-11.55
-59.98
-112.31
-163.06
-206.34
-238.20
-258.64
-271.84
-284.40
-302.42
-328.91
-362.54
-398.62
-431.18
-454.98
-466.61
-464.63
-448.88
-420.28
-380.74
-333.31
-281.96
-231.08
-184.81
-146.60
-118.63
-101.08
-91.50
-84.66
-73.58
-51.60
-14.59
37.62
101.70
172.43
244.37
312.27
370.88
414.49
437.75
437.79
416.14
379.29
336.65
296.95
265.05
240.82
220.54
199.55
174.87
145.94
113.88
79.94
44.42
6.48
-34.99
-80.43
-129.01
-178.41
-225.13
-265.25
-295.31
-313.23
-319.15
-315.50
-305.92
-293.71
-280.43
-265.95
-249.40
-230.47
-209.84
-188.48
-166.49
-142.67
-115.69
-85.81
-56.37
-33.31
-22.94
-29.40
-53.41
-92.97
-145.15
-207.19
-275.94
-346.53
-411.64
-462.76
-493.38
-501.93
-492.48
-472.87
-451.12
-432.10
-416.38
-401.61
-384.91
-365.05
-342.80
-319.93
-297.55
-275.27
-251.31
-223.66
-191.26
-154.56
-115.44
-76.27
-38.95
-4.17
28.81
61.91
97.63
138.32
185.24
237.45
291.22
340.52
378.67
400.83
405.97
397.45
381.76
366.21
356.79
356.97
367.72
387.87
414.60
443.43
468.51
483.44
482.75
463.61
426.56
375.36
315.47
252.43
190.62
132.66
79.34
29.75
-17.93
-65.80
-115.60
-168.65
-225.69
-286.54
-349.43
-410.27
-462.71
-499.49
-514.85
-506.66
-477.54
-433.87
-383.33
-332.39
-284.81
-241.85
-203.38
-169.01
-137.97
-109.15
-80.83
-51.12
-19.01
14.99
48.64
78.96
103.39
121.75
136.06
150.31
169.30
196.80
233.61
275.76
314.32
337.05
333.73
299.88
240.05
167.51
99.91
52.80
34.18
42.51
69.20
105.33
145.35
189.13
240.50
303.62
380.14
468.74
566.35
658.17
728.95
763.25
748.76
680.76
564.73
415.70
254.02
99.69
-32.92
-136.24
-210.78
-262.03
-296.21
-316.93
-323.77
-313.37
-282.88
-233.28
-169.45
-100.26
-36.16
15.53
48.72
59.15
45.45
10.12
-40.04
-93.66
-137.89
-162.58
-163.68
-144.51
-116.90
-95.20
-89.52
-102.02
-127.15
-156.81
-183.59
-202.22
-210.51
-208.52
-197.02
-176.87
-149.49
-117.37
-80.61
-42.77
-7.00
24.89
52.61
77.00
99.00
118.91
135.23
147.04
153.36
154.63
152.14
147.44
141.75
135.45
128.19
118.77
106.54
91.22
73.55
54.12
32.72
8.03
-22.45
-57.93
-98.39
-143.65
-193.91
-249.08
-307.94
-367.07
-420.95
-464.02
-493.71
-513.31
-530.33
-552.63
-583.09
-616.66
-641.76
-645.45
-619.79
-565.28
-490.43
-406.55
-322.70
-242.78
-166.12
-90.53
-14.95
59.49
130.38
195.28
253.42
306.08
355.28
402.08
445.44
482.58
510.76
529.25
539.86
545.63
548.33
546.22
533.95
504.80
454.68
385.02
303.20
220.12
146.29
88.68
49.46
26.90
17.03
15.41
17.71
19.97
19.08
13.00
1.22
-15.45
-35.43
-57.20
-78.91
-98.29
-112.48
-118.76
-116.20
-106.60
-94.83
-86.96
-87.28
-94.61
-101.94
-98.89
-76.51
-31.64
32.05
105.55
177.84
234.09
261.99
255.61
218.26
161.23
98.68
43.20
3.16
-17.42
-18.62
-3.64
21.38
48.40
71.45
86.28
92.67
94.50
97.21
104.26
114.96
124.62
126.94
117.14
93.86
60.03
21.22
-16.55
-47.50
-67.92
-76.60
-74.62
-64.69
-50.81
-37.00
-26.70
-22.02
-23.52
-30.58
-42.05
-57.38
-77.21
-103.14
-135.88
-173.32
-209.36
-234.94
-241.60
-225.40
-189.57
-143.64
-99.58
-66.56
-47.72
-40.58
-40.14
-42.83
-47.90
-56.40
-68.64
-82.69
-94.91
-102.37
-105.19
-106.96
-112.94
-126.66
-147.50
-170.60
-189.00
-196.69
-190.91
-172.51
-144.81
-111.87
-77.06
-42.79
-10.87
17.10
39.39
54.84
63.61
67.56
69.81
73.42
80.09
89.42
99.47
107.98
113.86
117.85
122.05
128.62
138.69
151.92
167.01
182.72
198.52
214.50
230.72
246.43
259.78
268.32
269.82
263.23
249.22
230.20
209.93
192.76
182.48
180.95
187.10
196.85
204.43
204.45
193.99
173.60
146.75
118.28
92.52
72.17
57.98
49.10
43.66
39.19
33.02
22.75
7.04
-13.67
-36.74
-57.89
-72.34
-76.44
-68.98
-51.65
-28.70
-5.69
11.85
19.83
16.30
1.60
-22.04
-51.25
-82.29
-111.91
-137.80
-159.04
-176.33
-191.94
-209.39
-232.96
-266.80
-313.50
-372.50
-438.97
-504.08
-557.16
-589.01
-595.30
-577.98
-544.17
-502.79
-460.79
-420.95
-382.22
-342.11
-299.43
-255.67
-214.19
-178.03
-147.84
-121.12
-93.37
-60.17
-19.02
29.99
84.57
141.20
195.85
244.25
282.51
308.27
322.25
329.01
335.61
348.36
369.09
393.12
410.72
411.63
390.15
347.92
292.87
234.91
181.04
132.77
86.72
37.56
-18.74
-82.72
-151.05
-217.45
-274.24
-314.29
-332.92
-329.15
-306.15
-270.47
-229.93
-191.57
-159.84
-136.08
-119.06
-106.37
-95.76
-86.20
-77.95
-71.91
-68.46
-66.38
-62.63
-53.15
-34.64
-6.47
28.49
64.62
95.51
116.05
123.80
118.98
103.64
80.81
54.08
27.51
5.55
-7.73
-10.09
-2.08
13.02
31.07
49.03
66.04
82.48
97.74
109.00
112.26
105.78
93.07
82.88
84.98
103.94
134.87
164.41
177.25
164.50
128.84
83.01
42.54
17.08
5.83
-0.42
-12.14
-33.69
-60.22
-80.48
-83.91
-67.07
-35.97
-2.61
21.63
32.07
32.50
31.62
36.78
48.80
61.34
64.99
53.75
29.59
2.14
-16.24
-17.43
-1.96
21.41
40.79
47.80
41.86
29.73
20.87
21.71
32.22
46.42
56.15
55.67
44.38
26.58
8.58
-4.29
-9.70
-8.38
-3.00
3.02
6.13
2.73
-10.47
-35.10
-69.66
-108.82
-144.82
-170.48
-182.23
-181.15
-171.37
-156.43
-136.31
-107.12
-63.95
-5.21
64.35
134.21
191.84
227.65
238.54
227.96
203.13
171.17
136.73
101.89
67.67
35.94
10.17
-5.76
-9.61
-2.38
11.62
26.67
38.10
44.09
45.76
45.69
46.05
47.38
48.72
48.62
46.28
41.79
35.93
29.62
23.85
19.98
19.85
25.58
38.47
57.68
79.59
98.25
106.94
99.81
73.64
28.98
-29.24
-91.95
-147.10
-182.32
-188.58
-163.70
-113.85
-51.86
7.23
51.31
74.52
77.39
64.62
42.13
15.37
-10.71
-31.00
-40.72
-37.11
-21.62
-0.73
15.91
18.95
3.28
-30.03
-74.46
-120.65
-159.43
-183.65
-189.08
-174.55
-141.86
-95.55
-42.22
10.85
57.49
93.92
119.21
134.28
140.54
138.83
129.54
113.55
93.19
72.25
54.74
42.59
33.81
22.56
1.40
-34.93
-86.38
-146.68
-205.10
-250.25
-273.76
-272.37
-247.46
-203.42
-146.11
-82.38
-20.36
31.05
64.09
75.55
68.91
53.62
40.94
38.21
44.41
50.19
42.56
11.86
-42.48
-110.53
-175.79
-222.26
-241.15
-233.76
-209.44
-180.02
-153.82
-132.28
-110.74
-82.47
-43.56
4.26
54.24
97.90
129.13
146.46
152.35
150.62
143.46
130.03
106.72
69.50
16.61
-49.31
-120.69
-186.40
-234.90
-257.91
-253.09
-224.41
-179.86
-127.85
-74.08
-20.84
31.31
80.89
124.24
156.74
175.76
183.08
184.70
187.84
196.72
209.91
220.91
221.60
206.64
176.45
137.21
98.14
67.77
50.97
47.90
54.88
66.42
77.34
84.33
86.50
85.00
81.89
79.19
78.17
79.21
81.86
84.78
85.32
79.33
62.07
30.42
-14.52
-66.05
-113.23
-144.77
-153.71
-140.35
-111.58
-77.21
-45.40
-20.01
-0.96
13.36
23.69
29.36
29.66
25.57
20.06
16.74
17.49
21.21
24.54
24.18
18.97
10.58
2.33
-3.08
-4.99
-4.55
-3.22
-1.09
3.54
12.69
26.63
42.49
54.94
58.94
52.85
40.00
27.45
22.71
29.97
48.21
71.84
93.80
108.91
115.56
114.93
108.41
95.68
75.00
45.97
12.55
-16.06
-28.18
-14.95
24.59
81.91
141.86
188.86
212.77
211.67
190.56
157.58
120.17
83.08
48.29
15.70
-16.27
-50.07
-87.91
-129.92
-172.62
-209.00
-230.65
-231.68
-211.89
-177.59
-139.23
-107.09
-87.61
-82.10
-88.03
-101.53
-119.20
-138.41
-156.36
-169.46
-174.04
-168.11
-153.03
-133.64
-116.38
-106.51
-105.94
-113.05
-124.47
-137.66
-152.57
-171.08
-195.11
-224.08
-253.69
-276.77
-285.50
-273.93
-239.58
-183.90
-112.08
-32.38
45.08
110.28
155.89
179.59
184.85
179.52
172.42
169.78
173.30
180.78
188.63
194.56
198.66
202.50
207.18
211.89
214.11
211.03
201.32
185.94
167.54
149.35
133.65
121.24
111.59
103.69
96.58
89.51
81.55
71.37
57.53
39.39
18.20
-2.46
-17.63
-22.98
-17.01
-2.13
16.06
31.16
38.82
38.42
32.93
26.89
24.00
25.42
29.76
34.50
37.62
38.50
37.79
36.80
36.79
39.06
45.10
56.47
73.96
96.68
121.72
145.11
163.17
173.74
176.28
170.92
157.35
134.28
100.17
54.99
2.00
-51.75
-96.68
-123.76
-127.90
-109.96
-76.54
-37.46
-2.25
22.77
35.07
34.93
23.82
3.53
-23.14
-51.31
-74.31
-85.73
-82.72
-68.26
-50.79
-40.93
-47.41
-74.29
-120.51
-181.48
-250.91
-321.84
-386.83
-438.06
-468.44
-473.60
-453.43
-412.31
-357.32
-295.45
-231.20
-165.78
-98.58
-29.68
37.99
98.59
145.38
173.57
182.77
177.36
164.68
151.96
143.57
140.04
139.21
138.48
136.53
133.77
131.16
128.75
124.90
116.99
102.98
82.89
59.17
35.75
16.40
2.98
-5.01
-9.73
-13.56
-17.75
-21.92
-24.54
-23.81
-18.67
-9.18
3.61
18.18
33.04
47.03
59.57
70.85
81.71
93.31
106.25
119.81
131.66
138.58
138.08
129.92
116.57
102.19
90.39
82.33
76.06
67.86
54.56
35.55
13.42
-7.17
-21.67
-27.57
-25.34
-17.94
-9.57
-4.03
-3.66
-8.80
-18.15
-29.42
-40.28
-49.06
-55.12
-58.64
-60.14
-59.85
-57.36
-51.61
-41.49
-26.53
-7.58
12.94
31.49
44.29
47.97
40.26
20.32
-10.79
-49.53
-89.57
-122.43
-139.25
-133.65
-104.38
-56.55
-0.29
52.46
91.87
112.81
115.19
102.07
77.09
42.83
1.09
-45.57
-92.38
-132.39
-158.57
-166.91
-158.70
-140.59
-121.91
-110.53
-109.54
-116.19
-123.80
-125.38
-117.12
-99.99
-78.86
-59.89
-47.56
-43.05
-44.30
-47.58
-49.52
-48.52
-44.93
-40.22
-35.81
-32.31
-29.67
-27.87
-27.70
-30.74
-38.58
-51.64
-68.33
-85.21
-98.06
-103.46
-99.95
-88.34
-71.24
-51.97
-33.48
-17.60
-4.66
6.34
17.14
29.20
42.75
56.19
66.41
69.94
64.57
50.42
29.91
6.67
-15.96
-36.08
-53.13
-67.26
-78.44
-86.16
-90.08
-90.87
-90.53
-91.71
-96.43
-104.94
-115.30
-124.30
-128.73
-126.69
-118.05
-103.88
-85.24
-61.98
-32.41
5.79
53.34
107.53
161.29
204.48
227.14
223.01
191.68
138.43
72.09
2.17
-62.98
-116.67
-153.52
-169.31
-161.66
-131.00
-81.12
-18.13
51.64
123.47
194.45
261.61
319.57
359.44
370.65
345.35
283.40
194.74
97.58
12.68
-43.46
-63.49
-50.41
-14.64
30.70
73.95
107.26
127.11
133.71
129.94
120.12
108.22
96.02
82.19
63.07
35.41
-0.40
-38.92
-71.51
-91.33
-97.83
-98.12
-103.39
-121.96
-152.98
-184.60
-198.71
-180.21
-125.40
-44.99
40.21
108.74
147.59
156.04
142.56
118.06
89.73
59.37
25.97
-10.10
-44.61
-70.79
-82.87
-79.27
-63.16
-40.49
-17.19
2.57
16.26
22.22
19.68
9.54
-4.55
-16.44
-19.52
-9.63
12.91
43.41
75.16
102.18
121.52
133.69
141.42
147.72
154.45
161.61
167.45
169.75
166.96
159.42
149.70
141.81
139.32
143.45
151.88
159.18
158.76
145.29
117.04
76.59
30.04
-15.02
-51.90
-76.94
-90.35
-95.70
-98.52
-104.57
-118.64
-143.73
-180.50
-226.77
-277.55
-325.83
-364.35
-387.72
-393.70
-383.40
-360.00
-326.92
-286.88
-242.23
-196.06
-152.74
-117.16
-92.62
-79.01
-72.49
-67.35
-58.81
-44.81
-26.24
-5.59
14.26
30.56
40.50
41.54
32.47
15.13
-4.83
-19.23
-20.67
-6.38
20.00
49.59
72.21
80.56
72.67
51.36
21.79
-10.88
-42.51
-69.46
-87.77
-93.28
-83.00
-56.90
-19.05
22.78
59.01
81.22
84.99
71.50
47.19
21.42
2.97
-3.29
2.02
13.71
24.58
28.49
22.01
4.61
-22.32
-56.47
-95.01
-134.44
-170.52
-199.16
-217.49
-225.02
-223.60
-216.10
-204.72
-189.93
-170.57
-145.47
-116.41
-88.53
-70.66
-72.09
-98.20
-146.69
-206.92
-263.22
-300.66
-310.62
-293.05
-254.85
-204.96
-149.76
-91.19
-27.97
41.06
114.45
187.70
255.20
312.89
360.34
400.43
436.90
471.17
500.39
517.88
516.56
493.06
450.03
395.55
339.66
290.40
251.66
223.85
206.32
199.29
203.69
218.95
240.84
261.46
271.58
264.45
238.11
195.15
140.05
76.32
5.41
-71.74
-151.89
-227.57
-288.24
-324.06
-330.32
-310.07
-273.04
-231.58
-195.77
-170.13
-153.27
-140.02
-124.65
-103.27
-74.72
-40.12
-1.73
37.92
76.57
112.22
142.99
166.90
181.91
186.42
179.92
163.49
139.72
111.96
83.23
55.49
29.61
5.92
-15.18
-33.07
-47.33
-58.08
-65.95
-71.60
-75.29
-76.92
-76.51
-74.75
-72.86
-71.93
-71.95
-71.68
-69.31
-63.71
-55.36
-46.05
-37.78
-31.38
-26.13
-20.42
-13.16
-4.71
3.35
9.44
13.38
16.85
22.60
32.78
47.59
65.13
82.50
97.46
109.61
120.46
132.38
147.04
164.44
182.82
199.55
212.40
220.53
224.55
226.10
226.91
228.21
230.57
234.21
239.35
246.57
256.61
269.64
284.84
300.12
312.62
319.50
318.93
310.62
295.87
276.83
255.13
231.81
207.16
181.56
155.70
130.51
106.33
82.71
58.73
33.15
5.68
-22.73
-49.85
-73.23
-91.49
-105.40
-117.90
-133.15
-156.01
-189.80
-235.53
-290.79
-350.32
-407.65
-457.00
-494.66
-513.86
-509.13
-477.58
-421.54
-348.05
-266.65
-186.44
-114.06
-53.11
-4.52
30.81
54.81
69.15
75.68
76.58
73.94
69.32
63.50
56.49
46.98
35.39
21.54
5.69
-11.59
-29.75
-48.46
-67.45
-86.06
-103.26
-117.39
-127.25
-131.87
-130.71
-123.48
-110.13
-91.02
-67.43
-41.98
-18.04
0.84
12.67
17.78
18.69
19.05
22.34
30.78
44.68
62.29
79.56
91.34
92.90
81.69
59.11
30.51
3.21
-16.58
-26.10
-26.56
-21.36
-13.91
-6.17
1.11
7.12
9.94
6.68
-5.12
-25.90
-53.43
-83.62
-112.22
-136.60
-156.65
-174.34
-192.60
-213.53
-236.96
-259.91
-277.15
-282.96
-273.32
-248.03
-210.64
-166.99
-123.08
-83.51
-51.37
-29.23
-19.84
-25.35
-45.32
-74.71
-103.95
-121.53
-118.49
-92.33
-48.05
4.20
53.64
93.06
120.64
138.90
151.89
162.54
171.56
177.98
180.45
178.48
172.83
164.92
155.97
146.32
135.44
122.53
107.31
90.60
74.28
60.63
51.29
46.53
45.01
44.44
42.52
37.85
30.34
21.04
11.57
3.39
-2.58
-6.23
-8.15
-9.43
-11.34
-14.85
-20.16
-26.50
-32.24
-35.53
-34.94
-30.00
-21.25
-10.00
2.01
12.92
20.88
24.31
22.39
15.55
5.69
-4.19
-10.96
-12.57
-8.74
-0.95
8.35
16.70
22.28
24.09
21.78
15.51
5.97
-5.52
-17.16
-27.06
-33.98
-37.67
-38.91
-38.90
-38.59
-38.21
-37.22
-34.67
-29.78
-22.18
-12.18
-0.62
11.27
22.03
30.07
33.92
32.52
25.72
14.60
1.40
-11.00
-19.88
-23.59
-21.88
-15.78
-6.99
2.89
12.68
21.78
29.86
36.66
41.87
45.20
46.41
45.25
41.39
34.35
23.79
9.87
-6.61
-24.25
-41.45
-56.92
-69.95
-80.34
-87.99
-92.51
-93.09
-88.79
-79.10
-64.35
-45.90
-25.78
-6.20
11.00
24.63
34.07
39.13
39.89
36.73
30.40
22.08
13.20
5.06
-1.49
-6.14
-9.06
-10.58
-11.03
-10.63
-9.63
-8.29
-6.93
-5.84
-5.19
-4.95
-4.97
-5.09
-5.28
-5.67
-6.48
-7.90
-9.92
-12.06
-13.49
-13.13
-10.22
-4.75
2.25
8.96
13.57
15.08
13.88
11.41
9.42
8.81
9.27
9.46
8.06
4.72
0.45
-2.76
-2.98
0.70
7.66
16.08
23.70
28.67
30.18
28.45
24.50
19.59
14.76
10.58
7.08
3.85
0.33
-3.95
-9.19
-15.30
-21.82
-27.85
-32.04
-32.73
-28.56
-19.23
-6.07
7.87
18.76
23.44
20.89
12.81
2.96
-4.48
-6.76
-3.55
3.23
10.54
15.70
17.31
15.44
11.01
5.15
-1.34
-7.97
-14.27
-19.52
-22.73
-23.02
-20.04
-14.29
-7.08
-0.19
4.72
6.58
5.18
1.04
-4.92
-11.76
-18.72
-25.17
-30.47
-33.92
-34.96
-33.44
-29.93
-25.64
-21.84
-19.15
-16.96
-13.50
-6.69
4.71
20.15
36.96
50.76
56.50
49.93
29.10
-4.48
-45.55
-86.02
-116.95
-131.14
-125.31
-101.07
-64.32
-23.18
14.49
43.34
61.50
70.35
73.28
73.95
74.82
76.26
76.77
73.87
65.50
50.97
31.36
9.00
-13.28
-32.71
-46.98
-54.31
-53.60
-44.76
-29.01
-8.82
12.57
32.07
47.58
58.38
65.01
68.65
70.52
71.47
72.04
72.48
72.92
73.38
73.77
73.86
73.28
71.58
68.17
62.46
54.02
42.99
30.20
17.26
6.19
-1.22
-3.93
-2.08
3.09
9.50
14.70
16.45
13.37
5.50
-5.40
-16.17
-23.25
-24.13
-18.37
-7.82
4.11
13.81
18.73
17.89
11.72
1.39
-11.76
-26.36
-41.01
-54.06
-63.88
-69.21
-69.65
-65.82
-59.12
-51.19
-43.40
-36.61
-31.19
-27.26
-24.81
-23.76
-23.94
-25.02
-26.56
-28.12
-29.39
-30.12
-30.07
-28.96
-26.56
-22.96
-18.75
-15.00
-12.92
-13.27
-15.92
-19.77
-23.13
-24.33
-22.35
-17.11
-9.38
-0.52
8.12
15.37
20.51
23.26
23.70
22.21
19.35
15.72
11.89
8.35
5.47
3.55
2.75
3.04
4.16
5.57
6.59
6.58
5.22
2.59
-0.85
-4.45
-7.65
-10.14
-11.96
-13.32
-14.51
-15.81
-17.48
-19.66
-22.36
-25.34
-28.07
-29.93
-30.34
-29.01
-25.96
-21.43
-15.74
-9.23
-2.36
4.23
9.72
13.42
15.08
15.08
14.35
13.90
14.33
15.69
17.48
19.13
20.26
20.84
21.01
20.88
20.40
19.38
17.70
15.38
12.67
9.91
7.44
5.50
4.09
2.89
1.30
-1.41
-5.78
-11.77
-18.59
-24.85
-29.10
-30.32
-28.30
-23.53
-16.87
-9.19
-1.19
6.48
13.10
17.88
20.17
19.77
17.17
13.34
9.42
6.29
4.36
3.63
3.82
4.61
5.73
6.95
7.98
8.56
8.45
7.55
5.97
3.99
1.98
0.30
-0.82
-1.32
-1.36
-1.34
-1.83
-3.42
-6.44
-10.77
-15.74
-20.24
-23.09
-23.40
-20.84
-15.70
-8.72
-0.81
7.14
14.39
20.34
24.53
26.68
26.82
25.28
22.64
19.55
16.55
13.93
11.78
10.10
8.91
8.31
8.43
9.18
10.30
11.29
11.57
10.75
8.71
5.61
1.83
-2.19
-6.03
-9.34
-11.88
-13.57
-14.61
-15.48
-16.74
-18.77
-21.47
-24.14
-25.72
-25.18
-21.95
-16.18
-8.58
-0.20
7.95
15.04
20.41
23.62
24.47
23.13
20.17
16.44
12.78
9.72
7.33
5.34
3.44
1.54
-0.16
-1.32
-1.73
-1.50
-0.99
-0.64
-0.73
-1.23
-1.94
-2.66
-3.40
-4.35
-5.80
-7.91
-10.70
-13.95
-17.39
-20.75
-23.82
-26.36
-28.14
-28.83
-28.07
-25.62
-21.36
-15.46
-8.33
-0.61
6.90
13.44
18.42
21.58
23.03
23.08
22.15
20.54
18.49
16.17
13.88
12.01
10.92
10.76
11.33
12.07
12.36
11.69
9.96
7.41
4.46
1.49
-1.30
-3.91
-6.38
-8.71
-10.94
-13.16
-15.60
-18.55
-22.11
-25.96
-29.37
-31.25
-30.59
-26.81
-20.03
-11.04
-1.06
8.66
17.14
23.87
28.72
31.92
33.82
34.85
35.42
35.86
36.34
36.84
37.21
37.36
37.52
38.40
40.97
45.90
52.99
60.80
67.04
69.57
67.37
61.11
52.87
45.22
40.10
38.21
38.94
40.80
42.00
40.84
35.72
25.17
7.99
-16.24
-46.45
-79.80
-111.96
-138.25
-155.03
-160.81
-156.58
-145.11
-129.81
-113.49
-97.94
-84.04
-72.48
-64.04
-59.52
-59.14
-61.96
-65.86
-68.18
-66.78
-60.98
-51.73
-41.39
-32.67
-27.59
-26.83
-29.77
-34.82
-40.00
-43.41
-43.50
-39.42
-31.33
-20.67
-10.05
-2.50
-0.34
-3.98
-11.54
-19.44
-23.81
-22.08
-13.84
-0.68
14.88
30.69
45.72
60.00
73.80
86.80
97.80
105.13
107.42
104.52
97.61
88.67
79.65
71.81
65.48
60.49
56.61
53.87
52.40
52.11
52.49
52.80
52.43
51.19
49.34
47.32
45.39
43.44
41.08
37.87
33.48
27.81
20.96
13.14
4.74
-3.61
-11.08
-16.74
-19.84
-20.04
-17.51
-12.87
-6.91
-0.45
5.86
11.57
16.38
20.07
22.50
23.60
23.32
21.76
19.06
15.54
11.64
7.93
5.03
3.43
3.39
4.73
6.93
9.22
10.85
11.25
10.21
7.85
4.49
0.55
-3.56
-7.53
-11.17
-14.44
-17.47
-20.57
-24.09
-28.27
-32.97
-37.55
-40.96
-42.00
-39.78
-34.12
-25.67
-15.79
-6.13
1.83
7.20
9.75
9.88
8.26
5.61
2.45
-0.95
-4.42
-7.80
-10.74
-12.73
-13.19
-11.74
-8.46
-3.98
0.63
4.18
5.77
5.15
2.66
-0.87
-4.60
-7.92
-10.63
-12.93
-15.27
-18.16
-22.05
-27.13
-33.20
-39.55
-45.03
-48.25
-48.04
-43.82
-35.82
-25.05
-13.03
-1.35
8.62
15.97
20.30
21.77
20.92
18.66
15.93
13.55
11.96
11.26
11.25
11.64
12.23
12.92
13.65
14.27
14.58
14.36
13.49
12.01
10.12
8.04
5.93
3.90
1.95
0.05
-1.91
-4.12
-6.83
-10.23
-14.27
-18.54
-22.27
-24.52
-24.41
-21.41
-15.52
-7.29
2.28
11.94
20.42
26.69
30.17
30.82
29.11
25.84
21.89
18.01
14.71
12.27
10.72
10.00
9.95
10.35
10.91
11.34
11.39
10.90
9.86
8.36
6.57
4.65
2.68
0.72
-1.17
-2.93
-4.53
-6.07
-7.84
-10.32
-13.94
-18.84
-24.60
-30.17
-34.18
-35.34
-32.92
-26.94
-18.15
-7.78
2.84
12.58
20.58
26.32
29.60
30.50
29.38
26.84
23.60
20.43
17.86
16.20
15.47
15.46
15.88
16.42
16.89
17.13
17.07
16.61
15.60
13.92
11.49
8.41
4.99
1.66
-1.19
-3.39
-5.13
-6.91
-9.33
-12.82
-17.39
-22.57
-27.46
-31.03
-32.36
-30.91
-26.65
-20.09
-12.10
-3.72
4.06
10.49
15.11
17.82
18.75
18.18
16.46
14.02
11.27
8.67
6.64
5.50
5.47
6.50
8.34
10.56
12.58
13.91
14.22
13.38
11.52
8.89
5.80
2.53
-0.69
-3.67
-6.36
-8.88
-11.50
-14.60
-18.44
-22.97
-27.70
-31.79
-34.24
-34.24
-31.42
-26.02
-18.85
-11.04
-3.76
2.10
6.14
8.46
9.47
9.72
9.58
9.16
8.38
7.16
5.59
3.98
2.78
2.33
2.72
3.73
4.89
5.75
5.96
5.41
4.12
2.21
-0.21
-3.05
-6.11
-9.13
-11.80
-13.96
-15.76
-17.62
-20.12
-23.59
-27.90
-32.28
-35.54
-36.41
-33.98
-28.03
-19.10
-8.34
2.78
12.83
20.71
25.79
28.01
27.82
25.95
23.28
20.57
18.33
16.80
16.01
15.84
16.19
16.96
18.05
19.30
20.43
21.05
20.79
19.48
17.20
14.25
10.98
7.71
4.55
1.51
-1.44
-4.34
-7.28
-10.41
-13.96
-18.06
-22.57
-26.89
-30.07
-31.03
-28.99
-23.83
-16.11
-6.96
2.31
10.49
16.76
20.70
22.26
21.69
19.45
16.17
12.62
9.57
7.61
7.00
7.61
9.00
10.56
11.78
12.34
12.20
11.47
10.35
9.01
7.46
5.67
3.53
0.98
-1.94
-5.08
-8.23
-11.15
-13.67
-15.77
-17.60
-19.48
-21.79
-24.85
-28.65
-32.80
-36.44
-38.43
-37.75
-33.84
-26.90
-17.84
-7.99
1.22
8.76
14.09
17.15
18.21
17.62
15.77
13.10
10.20
7.74
6.42
6.64
8.32
10.90
13.54
15.47
16.31
16.17
15.45
14.61
13.86
13.07
11.89
10.06
7.48
4.35
1.05
-2.09
-4.85
-7.24
-9.42
-11.68
-14.29
-17.45
-21.22
-25.45
-29.75
-33.45
-35.75
-35.84
-33.17
-27.65
-19.78
-10.57
-1.35
6.60
12.37
15.55
16.29
15.12
12.70
9.70
6.64
4.00
2.18
1.56
2.32
4.28
6.82
9.04
10.10
9.61
7.86
5.70
4.14
3.81
4.66
6.05
7.09
6.99
5.47
2.71
-0.79
-4.47
-7.93
-11.05
-13.93
-16.85
-20.14
-23.97
-28.22
-32.43
-35.76
-37.28
-36.24
-32.26
-25.50
-16.68
-6.81
2.99
11.76
18.84
23.95
27.13
28.71
29.11
28.75
28.01
27.18
26.51
26.20
26.43
27.24
28.59
30.22
31.77
32.89
33.35
33.12
32.33
31.11
29.56
27.61
25.14
22.06
18.39
14.24
9.82
5.28
0.74
-3.70
-7.98
-12.02
-15.86
-19.67
-23.76
-28.40
-33.61
-38.99
-43.74
-46.83
-47.32
-44.75
-39.23
-31.46
-22.51
-13.47
-5.29
1.41
6.32
9.47
11.10
11.56
11.23
10.43
9.44
8.45
7.74
7.57
8.18
9.66
11.83
14.26
16.36
17.67
17.97
17.39
16.28
14.98
13.65
12.22
10.48
8.26
5.59
2.65
-0.22
-2.74
-4.78
-6.43
-7.91
-9.48
-11.37
-13.71
-16.55
-19.87
-23.53
-27.26
-30.54
-32.66
-32.90
-30.66
-25.78
-18.57
-9.84
-0.66
7.83
14.68
19.26
21.37
21.21
19.30
16.36
13.19
10.41
8.49
7.61
7.81
8.91
10.67
12.71
14.60
15.93
16.46
16.18
15.34
14.28
13.24
12.22
10.99
9.20
6.61
3.30
-0.37
-3.81
-6.52
-8.29
-9.32
-10.22
-11.74
-14.49
-18.63
-23.73
-28.77
-32.51
-33.80
-31.95
-26.88
-19.20
-9.97
-0.49
8.01
14.61
18.84
20.69
20.57
19.07
16.85
14.48
12.40
10.91
10.17
10.18
10.74
11.60
12.49
13.22
13.71
13.88
13.58
12.54
10.54
7.51
3.65
-0.60
-4.79
-8.62
-12.06
-15.26
-18.38
-21.53
-24.80
-28.29
-32.10
-36.13
-39.92
-42.57
-42.99
-40.32
-34.33
-25.58
-15.22
-4.59
5.27
13.79
20.79
26.29
30.20
32.35
32.55
30.87
27.73
23.86
20.10
17.07
15.02
13.75
12.85
11.92
10.86
9.87
9.25
9.11
9.25
9.17
8.31
6.34
3.27
-0.60
-4.79
-8.82
-12.37
-15.22
-17.39
-19.04
-20.58
-22.52
-25.31
-29.11
-33.61
-38.08
-41.53
-42.94
-41.61
-37.24
-30.06
-20.76
-10.41
-0.29
8.41
14.81
18.51
19.65
18.79
16.66
13.98
11.35
9.19
7.80
7.37
7.95
9.42
11.47
13.67
15.53
16.64
16.75
15.80
13.86
11.11
7.75
4.04
0.25
-3.35
-6.61
-9.53
-12.38
-15.57
-19.47
-24.18
-29.38
-34.40
-38.28
-40.05
-38.95
-34.64
-27.33
-17.76
-7.12
3.22
12.04
18.51
22.34
23.76
23.27
21.48
18.93
16.06
13.24
10.84
9.15
8.39
8.58
9.55
10.95
12.32
13.22
13.31
12.43
10.63
8.10
5.07
1.75
-1.74
-5.32
-8.88
-12.34
-15.68
-19.04
-22.69
-26.89
-31.63
-36.42
-40.27
-41.94
-40.33
-34.88
-25.91
-14.51
-2.33
8.92
17.91
23.93
26.99
27.58
26.46
24.34
21.78
19.14
16.71
14.79
13.66
13.52
14.29
15.61
16.87
17.46
16.96
15.31
12.79
9.83
6.76
3.68
0.47
-3.08
-7.01
-11.18
-15.26
-19.05
-22.57
-26.11
-30.02
-34.39
-38.84
-42.44
-43.94
-42.27
-36.88
-28.01
-16.68
-4.39
7.30
17.08
24.17
28.31
29.70
28.81
26.31
22.95
19.48
16.58
14.79
14.37
15.26
17.12
19.37
21.38
22.67
22.96
22.25
20.73
18.68
16.28
13.62
10.69
7.50
4.16
0.86
-2.22
-5.07
-7.98
-11.37
-15.61
-20.75
-26.35
-31.48
-35.00
-35.88
-33.52
-27.96
-19.79
-10.05
0.11
9.59
17.51
23.28
26.52
27.17
25.42
21.77
17.03
12.16
8.10
5.61
5.03
6.22
8.57
11.19
13.14
13.68
12.50
9.76
5.99
1.95
-1.73
-4.62
-6.69
-8.20
-9.62
-11.51
-14.35
-18.48
-23.92
-30.34
-36.90
-42.44
-45.68
-45.57
-41.69
-34.36
-24.52
-13.38
-2.09
8.56
18.15
26.39
32.97
37.52
39.72
39.57
37.52
34.45
31.50
29.69
29.68
31.59
35.01
39.10
42.86
45.45
46.46
46.10
45.15
44.64
45.52
48.07
51.60
54.50
54.44
49.10
37.00
18.38
-4.47
-27.47
-46.04
-56.54
-57.57
-50.34
-38.05
-24.55
-13.11
-5.65
-2.72
-4.04
-8.82
-16.10
-24.65
-33.01
-39.68
-43.45
-43.83
-41.11
-36.26
-30.59
-25.51
-22.21
-21.25
-22.46
-24.85
-26.92
-27.40
-25.78
-22.63
-19.31
-17.24
-17.24
-19.15
-22.10
-25.08
-27.43
-28.98
-29.81
-29.84
-28.66
-25.78
-21.07
-15.11
-9.07
-4.28
-1.64
-1.28
-2.70
-5.16
-8.21
-11.88
-16.43
-21.97
-28.00
-33.47
-37.10
-37.95
-35.81
-31.20
-25.10
-18.43
-11.78
-5.30
1.05
7.32
13.39
19.06
24.12
28.46
31.99
34.63
36.19
36.45
35.30
32.89
29.69
26.43
23.93
22.98
24.07
27.36
32.54
38.82
45.06
49.95
52.42
51.92
48.58
43.11
36.41
29.31
22.39
16.06
10.77
7.01
5.21
5.46
7.30
9.91
12.35
14.05
14.94
15.33
15.44
15.08
13.62
10.37
5.09
-1.67
-8.69
-14.66
-18.85
-21.33
-22.84
-24.10
-25.16
-25.33
-23.47
-18.63
-10.73
-0.59
10.38
20.53
28.50
33.26
34.28
31.59
25.91
18.57
11.14
4.89
0.40
-2.56
-4.70
-6.69
-8.92
-11.50
-14.53
-18.26
-23.01
-28.80
-35.13
-41.11
-46.04
-49.76
-52.89
-56.41
-60.97
-66.50
-72.20
-77.05
-80.47
-82.66
-84.38
-86.36
-88.58
-90.13
-89.45
-85.08
-76.33
-63.61
-48.27
-32.14
-16.90
-3.66
7.08
15.40
21.70
26.40
29.89
32.39
34.12
35.31
36.31
37.53
39.23
41.35
43.32
44.23
43.14
39.49
33.46
26.00
18.49
12.31
8.29
6.51
6.37
6.86
7.02
6.19
4.23
1.41
-1.75
-4.73
-7.16
-8.79
-9.45
-8.92
-6.98
-3.52
1.26
6.91
12.95
19.20
25.85
33.08
40.45
46.39
48.42
44.10
32.43
14.93
-4.33
-19.86
-26.78
-22.62
-8.34
12.11
33.14
49.34
56.99
54.81
43.94
27.34
8.90
-7.45
-18.49
-22.13
-17.73
-6.34
9.37
25.38
37.05
40.26
32.66
14.53
-11.05
-38.96
-63.50
-80.29
-87.59
-86.68
-80.84
-73.74
-67.88
-63.97
-61.31
-58.70
-55.17
-50.32
-44.15
-36.73
-28.10
-18.38
-7.73
3.74
16.27
30.77
48.69
71.42
99.54
131.95
165.55
195.35
215.44
220.51
207.67
177.85
135.85
88.85
44.07
6.70
-20.81
-38.16
-46.06
-45.54
-38.15
-26.34
-13.49
-2.99
3.21
5.45
6.04
7.92
13.17
22.22
34.11
47.05
58.87
67.15
69.47
63.99
50.22
29.34
3.87
-23.26
-49.18
-71.21
-86.55
-92.19
-85.65
-66.48
-37.36
-3.95
27.16
51.15
66.71
75.71
80.86
82.89
79.13
64.52
34.59
-11.32
-68.43
-127.47
-177.88
-211.46
-224.97
-220.20
-202.00
-175.47
-144.10
-109.35
-71.70
-31.95
8.20
46.84
83.31
118.94
156.21
196.48
237.71
273.75
296.16
297.48
274.40
229.06
167.67
97.85
26.11
-42.97
-105.86
-158.84
-197.65
-218.70
-220.85
-206.77
-182.45
-155.23
-131.23
-113.49
-101.80
-93.57
-85.66
-75.82
-63.41
-49.37
-35.79
-25.32
-20.64
-23.95
-36.36
-57.16
-83.11
-108.55
-126.36
-129.76
-114.33
-79.56
-29.25
29.27
86.64
133.37
161.61
166.51
146.93
105.51
48.20
-16.66
-79.41
-130.43
-161.65
-168.07
-149.19
-109.87
-59.72
-10.74
26.63
47.31
53.18
51.61
51.49
58.84
74.38
93.76
110.20
117.58
112.40
94.12
64.13
24.66
-21.92
-72.91
-124.89
-173.63
-214.42
-242.72
-255.04
-249.46
-226.27
-188.06
-139.09
-83.93
-25.98
33.07
92.57
151.46
207.05
254.88
290.11
309.44
312.40
301.35
280.20
252.78
221.97
189.94
159.16
133.10
115.98
111.32
120.21
140.17
165.61
189.64
206.40
212.85
209.35
198.66
183.93
166.94
147.41
123.65
94.25
59.68
23.08
-10.31
-34.76
-45.69
-40.99
-21.46
9.62
47.35
86.44
122.33
152.17
175.05
191.58
202.76
208.96
209.29
202.06
186.11
162.01
132.40
101.00
70.68
41.74
11.60
-23.66
-66.46
-115.43
-164.92
-206.89
-234.39
-244.67
-240.33
-227.90
-214.54
-204.98
-200.17
-198.17
-196.46
-194.08
-192.12
-192.60
-196.63
-203.01
-208.33
-208.38
-200.04
-182.59
-158.05
-130.31
-103.72
-81.71
-65.91
-56.11
-50.82
-48.34
-47.44
-47.67
-48.93
-50.78
-52.04
-50.99
-46.18
-37.16
-24.76
-10.74
3.01
14.97
24.20
30.08
32.10
29.90
23.59
14.03
2.88
-7.94
-16.77
-22.78
-26.11
-27.73
-29.05
-31.33
-35.17
-40.13
-44.76
-47.07
-45.37
-38.94
-28.32
-15.02
-0.84
12.61
24.16
32.83
37.78
38.35
34.42
26.76
17.06
7.40
-0.48
-5.79
-8.75
-10.18
-10.87
-11.12
-10.74
-9.44
-7.22
-4.67
-2.79
-2.59
-4.61
-8.72
-14.11
-19.75
-24.72
-28.51
-31.12
-32.95
-34.60
-36.61
-39.22
-42.17
-44.69
-45.68
-43.99
-38.93
-30.46
-19.33
-6.89
5.34
15.94
23.91
28.64
29.99
28.28
24.25
19.05
13.92
9.90
7.60
7.11
8.11
10.14
12.68
15.31
17.63
19.23
19.76
19.01
17.04
14.21
11.00
7.90
5.24
3.17
1.64
0.42
-0.90
-2.89
-6.03
-10.43
-15.60
-20.44
-23.56
-23.78
-20.65
-14.55
-6.55
1.99
9.87
16.27
20.77
23.30
24.01
23.30
21.74
19.98
18.54
17.65
17.18
16.80
16.26
15.47
14.61
13.90
13.43
13.07
12.50
11.40
9.69
7.53
5.19
2.90
0.71
-1.54
-4.11
-7.31
-11.44
-16.81
-23.66
-31.96
-41.13
-49.99
-56.91
-60.26
-59.00
-53.00
-43.07
-30.68
-17.55
-5.27
4.81
11.64
14.52
13.23
8.21
0.58
-8.07
-16.01
-21.82
-24.75
-24.76
-22.40
-18.59
-14.27
-10.21
-6.92
-4.71
-3.84
-4.53
-6.88
-10.71
-15.46
-20.22
-24.03
-26.28
-26.96
-26.74
-26.61
-27.47
-29.62
-32.69
-35.74
-37.62
-37.36
-34.46
-29.00
-21.53
-12.94
-4.17
3.95
10.80
15.92
18.92
19.50
17.51
13.19
7.32
1.07
-4.26
-7.69
-8.88
-8.18
-6.32
-4.05
-1.70
0.77
3.58
6.79
10.22
13.48
16.30
18.71
21.08
23.84
27.08
30.28
32.33
32.01
28.54
22.20
14.35
7.01
2.13
0.86
3.21
8.31
14.85
21.70
28.09
33.54
37.60
39.72
39.34
36.31
31.07
24.68
18.47
13.57
10.61
9.61
10.20
11.86
13.98
16.02
17.37
17.54
16.29
13.79
10.61
7.54
5.22
3.91
3.45
3.36
3.06
1.96
-0.43
-4.39
-9.78
-15.92
-21.52
-25.05
-25.18
-21.26
-13.66
-3.56
7.39
17.59
25.75
31.02
33.01
31.83
28.09
22.87
17.45
12.97
10.08
8.83
8.81
9.48
10.43
11.50
12.68
13.87
14.86
15.31
14.97
13.80
11.96
9.75
7.35
4.79
1.96
-1.36
-5.39
-10.41
-16.64
-24.10
-32.38
-40.53
-47.13
-50.69
-50.11
-45.14
-36.38
-25.11
-12.86
-1.06
9.13
16.76
21.17
22.07
19.75
15.13
9.60
4.64
1.31
0.03
0.64
2.58
5.27
8.19
11.00
13.36
15.02
15.74
15.41
14.06
11.80
8.75
4.97
0.52
-4.42
-9.56
-14.45
-18.73
-22.20
-24.99
-27.55
-30.50
-34.32
-39.11
-44.42
-49.22
-52.19
-52.14
-48.39
-40.99
-30.71
-18.81
-6.74
4.13
12.72
18.39
20.98
20.84
18.83
16.03
13.59
12.41
13.02
15.49
19.51
24.51
29.72
34.33
37.66
39.28
39.15
37.56
35.03
32.02
28.77
25.18
21.04
16.18
10.80
5.48
1.03
-1.78
-2.67
-2.02
-0.88
-0.70
-2.73
-7.51
-14.57
-22.47
-29.22
-33.05
-32.86
-28.52
-20.74
-10.70
0.27
10.99
20.45
27.89
32.79
35.02
34.86
32.99
30.28
27.56
25.45
24.28
24.20
25.19
27.11
29.67
32.45
34.92
36.63
37.28
36.84
35.48
33.49
31.12
28.54
25.87
23.18
20.60
18.25
16.26
14.58
13.06
11.48
9.66
7.65
5.61
3.75
1.98
-0.21
-3.65
-9.00
-16.32
-24.65
-32.22
-37.01
-37.48
-33.16
-24.66
-13.42
-1.11
10.69
20.69
27.85
31.45
31.25
27.67
21.83
15.34
9.77
6.22
5.09
6.10
8.57
11.72
14.82
17.21
18.36
17.95
15.99
12.86
9.18
5.63
2.70
0.53
-1.00
-2.10
-2.92
-3.49
-3.73
-3.63
-3.34
-3.15
-3.42
-4.43
-6.32
-9.09
-12.59
-16.52
-20.51
-24.19
-27.28
-29.76
-32.01
-34.69
-38.54
-43.92
-50.48
-57.10
-62.12
-63.92
-61.50
-54.77
-44.64
-32.65
-20.54
-9.81
-1.42
4.23
7.33
8.39
8.14
7.31
6.50
6.11
6.32
7.20
8.69
10.66
12.88
15.05
16.84
18.05
18.59
18.58
18.18
17.50
16.55
15.20
13.34
10.97
8.24
5.40
2.63
-0.02
-2.68
-5.52
-8.60
-11.77
-14.76
-17.25
-19.09
-20.34
-21.30
-22.33
-23.82
-25.96
-28.70
-31.69
-34.28
-35.66
-35.00
-31.73
-25.75
-17.52
-8.07
1.28
9.32
15.19
18.61
19.75
19.10
17.32
15.09
13.12
12.08
12.46
14.41
17.63
21.42
24.90
27.37
28.69
29.23
29.76
30.95
33.09
35.93
38.90
41.32
42.71
42.98
42.35
41.24
40.08
39.09
38.25
37.25
35.64
32.97
28.97
23.66
17.37
10.64
3.99
-2.12
-7.50
-12.21
-16.54
-20.97
-25.93
-31.60
-37.67
-43.38
-47.64
-49.45
-48.27
-44.17
-37.80
-30.14
-22.26
-15.10
-9.42
-5.81
-4.62
-5.76
-8.64
-12.21
-15.28
-16.92
-16.81
-15.20
-12.77
-10.25
-8.11
-6.47
-5.15
-3.81
-2.06
0.45
3.95
8.48
13.76
19.21
24.07
27.65
29.56
29.77
28.49
25.95
22.23
17.31
11.22
4.25
-3.02
-9.91
-15.81
-20.50
-24.12
-27.10
-30.03
-33.41
-37.61
-42.75
-48.64
-54.73
-60.11
-63.63
-64.18
-61.07
-54.30
-44.66
-33.55
-22.59
-13.21
-6.30
-2.18
-0.60
-0.96
-2.41
-4.08
-5.18
-5.08
-3.44
-0.25
4.15
9.23
14.28
18.69
21.94
23.78
24.23
23.60
22.41
21.21
20.37
19.92
19.55
18.75
17.03
14.08
9.95
5.00
-0.20
-4.98
-8.74
-11.11
-12.09
-12.09
-11.90
-12.48
-14.63
-18.66
-24.19
-30.21
-35.27
-37.98
-37.38
-33.27
-26.23
-17.45
-8.37
-0.28
6.01
10.26
12.74
14.01
14.66
15.16
15.76
16.51
17.37
18.24
19.08
19.93
20.90
22.14
23.72
25.58
27.55
29.32
30.62
31.28
31.31
30.87
30.10
29.03
27.59
25.66
23.24
20.51
17.72
15.08
12.62
10.24
7.77
5.22
2.63
0.05
-2.64
-5.71
-9.40
-13.71
-18.14
-21.84
-23.88
-23.61
-20.89
-16.04
-9.77
-2.84
3.94
9.86
14.29
16.79
17.21
15.77
13.00
9.61
6.28
3.50
1.51
0.39
0.08
0.48
1.43
2.78
4.27
5.67
6.76
7.40
7.64
7.58
7.33
6.88
6.16
4.98
3.27
1.06
-1.45
-4.03
-6.44
-8.55
-10.35
-11.89
-13.25
-14.53
-15.96
-17.86
-20.60
-24.45
-29.35
-34.78
-39.75
-43.04
-43.46
-40.41
-34.03
-25.30
-15.75
-7.00
-0.23
4.05
6.05
6.42
5.86
4.88
3.76
2.68
1.96
2.03
3.40
6.35
10.74
15.94
20.99
24.97
27.32
28.10
27.89
27.61
28.05
29.55
31.80
33.92
34.89
34.07
31.59
28.43
26.04
25.61
27.48
31.02
34.95
37.79
38.55
36.62
31.52
22.63
9.60
-7.02
-25.11
-41.36
-52.53
-56.93
-55.26
-50.27
-45.30
-42.74
-43.15
-45.71
-49.07
-52.58
-56.57
-61.76
-68.49
-76.25
-83.77
-89.55
-92.69
-93.27
-92.61
-92.67
-95.00
-99.39
-103.50
-103.67
-96.61
-81.30
-59.50
-35.73
-15.40
-2.72
1.09
-1.98
-7.44
-9.70
-3.54
15.07
46.77
88.49
134.50
178.62
216.50
246.86
270.78
289.55
303.00
307.62
298.24
271.35
227.94
173.54
116.33
64.25
17.67
-22.81
-57.20
-85.27
-106.22
-119.36
-126.28
-131.10
-138.59
-151.56
-167.56
-179.78
-180.56
-164.17
-128.90
-78.80
-21.91
32.90
78.69
112.35
133.65
144.71
144.92
137.38
126.26
114.57
102.26
85.82
61.11
26.71
-13.34
-50.14
-73.93
-80.22
-72.13
-58.34
-47.56
-43.61
-44.46
-45.07
-41.71
-34.45
-27.62
-26.94
-36.00
-54.44
-78.04
-100.77
-116.99
-123.15
-118.04
-102.78
-80.25
-54.48
-30.47
-13.73
-9.39
-20.48
-45.97
-79.64
-111.22
-129.34
-125.72
-98.28
-51.63
5.20
62.61
113.21
152.65
178.28
187.75
179.09
151.61
107.32
50.77
-12.50
-78.18
-144.95
-213.84
-285.97
-359.19
-427.05
-480.39
-511.13
-515.91
-497.52
-463.76
-424.12
-386.31
-353.56
-325.02
-297.93
-269.88
-239.89
-207.49
-173.04
-137.33
-101.81
-66.74
-31.63
4.29
41.35
79.64
120.61
164.71
210.98
255.94
298.19
338.08
377.35
418.33
464.07
520.50
591.02
674.00
759.55
836.91
895.83
929.40
935.44
917.53
886.62
852.31
818.52
779.47
729.85
666.30
588.85
499.54
379.46
225.21
47.78
-111.04
-238.80
-336.29
-413.56
-477.98
-536.01
-590.93
-637.02
-665.04
-665.83
-637.72
-582.16
-506.46
-422.33
-343.14
-278.74
-229.95
-193.05
-162.84
-137.74
