1624540896.00
64.000000
-0.00
-0.00
-0.00
-0.00
-0.00
-0.00
-0.00
-0.00
-0.00
-0.00
0.00
0.01
0.01
-0.00
-0.03
-0.05
-0.05
0.00
0.13
0.36
0.66
1.01
1.37
1.72
2.06
2.40
2.79
3.23
3.79
4.43
5.11
5.78
6.39
6.92
7.42
7.95
8.57
9.40
10.39
11.47
12.53
13.49
14.38
15.31
16.48
18.04
20.26
22.99
26.00
28.99
31.76
34.31
36.89
39.91
43.70
48.76
54.85
61.56
68.31
74.64
80.43
86.00
91.96
98.92
107.65
117.97
129.30
140.80
151.66
161.55
170.69
180.24
189.03
199.76
213.62
231.13
251.16
270.43
283.95
286.42
274.13
246.39
206.19
158.16
107.26
56.91
8.38
-38.68
-85.24
-131.98
-179.05
-225.82
-271.46
-314.18
-351.17
-378.89
-394.18
-395.52
-383.77
-362.14
-334.83
-305.85
-277.93
-252.34
-229.29
-208.59
-190.02
-173.37
-158.27
-144.01
-129.91
-115.54
-100.96
-86.70
-73.55
-62.15
-52.69
-44.85
-37.93
-31.24
-24.34
-17.24
-10.30
-4.05
1.10
5.00
7.86
10.06
12.04
14.10
16.30
18.51
20.49
22.00
22.96
23.41
23.52
23.48
23.42
23.40
23.39
23.32
23.12
22.75
22.21
21.54
20.81
20.09
19.42
18.79
18.22
17.67
17.16
16.68
16.22
15.72
15.15
14.50
13.79
13.11
12.59
12.27
12.12
12.04
11.86
11.49
10.92
10.25
9.63
9.19
8.98
8.97
9.03
9.06
8.98
8.77
8.47
8.09
7.67
7.22
6.77
6.39
6.17
6.16
6.32
6.54
6.68
6.64
6.43
6.15
5.88
5.68
5.47
5.18
4.79
4.41
4.18
4.19
4.41
4.68
4.81
4.67
4.30
3.81
3.33
2.92
2.60
2.34
2.12
1.92
1.73
1.50
1.17
0.70
0.15
-0.40
-0.85
-1.13
-1.25
-1.28
-1.28
-1.31
-1.40
-1.55
-1.75
-1.98
-2.23
-2.48
-2.71
-2.92
-3.09
-3.22
-3.28
-3.25
-3.13
-2.91
-2.63
-2.35
-2.12
-1.97
-1.85
-1.67
-1.38
-0.98
-0.52
-0.14
0.04
0.01
-0.19
-0.41
-0.53
-0.45
-0.17
0.24
0.71
1.15
1.48
1.65
1.62
1.42
1.13
0.90
0.85
1.03
1.39
1.81
2.17
2.38
2.44
2.44
2.46
2.57
2.77
2.99
3.18
3.30
3.34
3.31
3.23
3.09
2.92
2.73
2.58
2.50
2.49
2.53
2.54
2.49
2.36
2.19
2.06
2.04
2.16
2.37
2.60
2.75
2.76
2.64
2.43
2.21
2.00
1.84
1.72
1.67
1.75
1.98
2.34
2.72
2.98
2.98
2.69
2.20
1.67
1.26
1.07
1.05
1.10
1.15
1.15
1.14
1.14
1.13
1.08
0.93
0.71
0.46
0.31
0.31
0.49
0.77
1.06
1.26
1.32
1.23
1.03
0.79
0.55
0.35
0.21
0.13
0.13
0.20
0.33
0.49
0.61
0.64
0.59
0.50
0.44
0.49
0.63
0.79
0.86
0.77
0.55
0.27
0.06
-0.02
0.05
0.22
0.43
0.64
0.81
0.90
0.89
0.77
0.61
0.52
0.59
0.81
1.10
1.33
1.40
1.26
1.02
0.78
0.64
0.63
0.69
0.75
0.78
0.79
0.80
0.83
0.87
0.89
0.88
0.83
0.75
0.66
0.56
0.44
0.33
0.25
0.29
0.47
0.76
1.07
1.29
1.34
1.25
1.09
0.93
0.80
0.65
0.42
0.11
-0.21
-0.42
-0.43
-0.25
0.01
0.21
0.25
0.15
0.01
-0.07
-0.03
0.11
0.26
0.34
0.30
0.19
0.08
0.05
0.12
0.25
0.39
0.48
0.51
0.49
0.44
0.33
0.16
-0.11
-0.39
-0.58
-0.54
-0.25
0.24
0.75
1.10
1.17
0.99
0.69
0.42
0.28
0.30
0.41
0.53
0.63
0.67
0.66
0.60
0.49
0.35
0.20
0.09
0.03
0.04
0.08
0.12
0.11
0.04
-0.08
-0.19
-0.25
-0.21
-0.08
0.10
0.28
0.41
0.46
0.44
0.37
0.29
0.20
0.12
0.04
-0.01
0.01
0.14
0.40
0.76
1.12
1.35
1.36
1.14
0.79
0.43
0.21
0.16
0.24
0.34
0.34
0.19
-0.08
-0.40
-0.66
-0.81
-0.81
-0.66
-0.39
-0.04
0.33
0.63
0.82
0.85
0.72
0.50
0.28
0.17
0.20
0.32
0.44
0.44
0.26
-0.06
-0.42
-0.70
-0.85
-0.87
-0.79
-0.70
-0.60
-0.50
-0.39
-0.29
-0.24
-0.28
-0.44
-0.66
-0.87
-0.96
-0.92
-0.76
-0.56
-0.44
-0.44
-0.57
-0.78
-0.97
-1.04
-0.96
-0.72
-0.36
0.06
0.46
0.78
0.96
1.00
0.91
0.76
0.65
0.62
0.73
0.91
1.10
1.21
1.19
1.04
0.82
0.60
0.44
0.37
0.40
0.46
0.49
0.43
0.27
0.07
-0.11
-0.17
-0.12
0.03
0.23
0.44
0.62
0.74
0.80
0.76
0.64
0.47
0.34
0.31
0.40
0.58
0.76
0.86
0.85
0.75
0.62
0.52
0.46
0.44
0.44
0.42
0.37
0.28
0.16
0.05
-0.01
0.00
0.08
0.18
0.29
0.35
0.39
0.41
0.43
0.43
0.39
0.28
0.13
-0.03
-0.15
-0.20
-0.19
-0.15
-0.09
-0.02
0.06
0.13
0.17
0.17
0.11
0.00
-0.12
-0.23
-0.35
-0.47
-0.58
-0.62
-0.54
-0.32
-0.02
0.24
0.34
0.25
0.05
-0.13
-0.16
0.00
0.26
0.49
0.56
0.45
0.18
-0.14
-0.42
-0.63
-0.78
-0.89
-0.94
-0.91
-0.76
-0.48
-0.12
0.22
0.45
0.53
0.47
0.33
0.17
0.04
-0.06
-0.13
-0.21
-0.28
-0.35
-0.39
-0.35
-0.22
0.01
0.29
0.56
0.75
0.84
0.88
0.91
0.97
1.00
0.95
0.76
0.45
0.12
-0.14
-0.24
-0.20
-0.09
-0.01
-0.02
-0.09
-0.20
-0.28
-0.29
-0.21
-0.05
0.16
0.35
0.43
0.38
0.19
-0.04
-0.22
-0.26
-0.19
-0.10
-0.08
-0.17
-0.33
-0.47
-0.52
-0.48
-0.41
-0.36
-0.36
-0.38
-0.37
-0.26
-0.09
0.07
0.15
0.10
-0.05
-0.21
-0.27
-0.17
0.05
0.33
0.55
0.61
0.49
0.22
-0.09
-0.30
-0.33
-0.18
0.06
0.24
0.24
-0.00
-0.42
-0.88
-1.24
-1.42
-1.42
-1.32
-1.20
-1.16
-1.17
-1.22
-1.23
-1.15
-0.98
-0.74
-0.52
-0.36
-0.31
-0.34
-0.39
-0.42
-0.40
-0.37
-0.39
-0.49
-0.69
-0.96
-1.28
-1.62
-1.96
-2.26
-2.48
-2.53
-2.35
-1.91
-1.27
-0.53
0.14
0.67
1.00
1.16
1.27
1.45
1.79
2.32
2.99
3.70
4.31
4.77
5.05
5.16
5.15
5.03
4.80
4.48
4.09
3.68
3.30
2.97
2.68
2.42
2.19
2.03
1.93
1.87
1.77
1.54
1.11
0.51
-0.17
-0.85
-1.47
-2.08
-2.75
-3.50
-4.26
-4.86
-5.18
-5.13
-4.78
-4.26
-3.75
-3.35
-3.06
-2.87
-2.78
-2.80
-2.98
-3.25
-3.41
-3.21
-2.51
-1.42
-0.29
0.46
0.52
-0.07
-0.97
-1.68
-1.80
-1.18
0.06
1.67
3.39
5.08
6.68
8.14
9.42
10.37
10.88
10.85
10.20
8.98
7.30
5.37
3.45
1.83
0.69
0.14
0.10
0.42
0.86
1.15
1.09
0.55
-0.44
-1.73
-3.07
-4.20
-4.94
-5.22
-5.10
-4.69
-4.11
-3.46
-2.83
-2.35
-2.10
-2.12
-2.37
-2.69
-2.90
-2.83
-2.44
-1.82
-1.15
-0.62
-0.36
-0.36
-0.52
-0.66
-0.60
-0.30
0.19
0.66
0.93
0.86
0.49
-0.04
-0.55
-0.86
-0.94
-0.81
-0.54
-0.20
0.17
0.50
0.75
0.85
0.78
0.55
0.23
-0.10
-0.35
-0.48
-0.48
-0.34
-0.11
0.14
0.35
0.48
0.52
0.52
0.50
0.51
0.51
0.46
0.33
0.10
-0.15
-0.38
-0.55
-0.67
-0.77
-0.89
-1.01
-1.11
-1.12
-1.04
-0.95
-0.92
-0.99
-1.14
-1.24
-1.16
-0.81
-0.20
0.52
1.13
1.46
1.44
1.13
0.71
0.38
0.28
0.43
0.75
1.08
1.27
1.23
0.93
0.46
-0.07
-0.53
-0.83
-0.92
-0.84
-0.64
-0.40
-0.20
-0.11
-0.15
-0.29
-0.48
-0.67
-0.82
-0.91
-0.94
-0.90
-0.79
-0.59
-0.33
-0.08
0.09
0.08
-0.08
-0.30
-0.40
-0.26
0.13
0.65
1.11
1.34
1.28
0.99
0.63
0.34
0.19
0.18
0.23
0.28
0.29
0.26
0.23
0.24
0.28
0.34
0.38
0.36
0.25
0.05
-0.19
-0.42
-0.59
-0.67
-0.65
-0.56
-0.41
-0.25
-0.08
0.06
0.16
0.21
0.21
0.15
0.04
-0.11
-0.30
-0.51
-0.70
-0.82
-0.84
-0.76
-0.60
-0.42
-0.26
-0.17
-0.12
-0.10
-0.06
0.01
0.12
0.25
0.37
0.46
0.51
0.50
0.44
0.36
0.30
0.29
0.32
0.37
0.42
0.42
0.37
0.25
0.07
-0.16
-0.41
-0.63
-0.80
-0.88
-0.88
-0.84
-0.80
-0.77
-0.72
-0.62
-0.44
-0.19
0.08
0.28
0.35
0.30
0.18
0.06
0.00
0.01
0.03
0.01
-0.09
-0.24
-0.38
-0.45
-0.44
-0.38
-0.31
-0.25
-0.17
-0.02
0.20
0.44
0.62
0.71
0.72
0.71
0.75
0.87
1.00
1.06
1.00
0.84
0.64
0.44
0.23
-0.02
-0.35
-0.71
-1.00
-1.12
-1.02
-0.75
-0.47
-0.31
-0.34
-0.50
-0.66
-0.66
-0.45
-0.06
0.37
0.72
0.90
0.90
0.77
0.58
0.39
0.20
0.02
-0.18
-0.39
-0.57
-0.67
-0.63
-0.42
-0.07
0.31
0.60
0.70
0.60
0.38
0.19
0.11
0.16
0.28
0.36
0.36
0.28
0.16
0.06
-0.01
-0.06
-0.10
-0.13
-0.13
-0.10
-0.06
-0.04
-0.04
-0.05
-0.06
-0.07
-0.12
-0.21
-0.33
-0.45
-0.50
-0.46
-0.35
-0.25
-0.23
-0.29
-0.37
-0.37
-0.22
0.09
0.47
0.78
0.91
0.82
0.55
0.18
-0.17
-0.42
-0.53
-0.52
-0.42
-0.28
-0.13
-0.00
0.09
0.16
0.21
0.27
0.33
0.39
0.43
0.41
0.31
0.14
-0.07
-0.24
-0.33
-0.33
-0.28
-0.24
-0.21
-0.16
-0.05
0.12
0.32
0.48
0.53
0.46
0.32
0.16
0.05
-0.03
-0.11
-0.21
-0.29
-0.29
-0.17
0.02
0.20
0.24
0.08
-0.24
-0.61
-0.88
-0.94
-0.75
-0.33
0.21
0.74
1.15
1.35
1.33
1.12
0.81
0.49
0.22
0.03
-0.06
-0.10
-0.09
-0.07
-0.04
-0.05
-0.11
-0.23
-0.37
-0.47
-0.50
-0.42
-0.28
-0.13
-0.03
-0.01
-0.06
-0.16
-0.31
-0.51
-0.74
-0.95
-1.02
-0.85
-0.41
0.16
0.68
0.94
0.84
0.46
-0.03
-0.43
-0.63
-0.62
-0.45
-0.22
0.02
0.26
0.49
0.71
0.88
0.97
0.93
0.73
0.38
-0.05
-0.44
-0.71
-0.81
-0.79
-0.75
-0.83
-1.02
-1.24
-1.34
-1.22
-0.89
-0.48
-0.13
0.06
0.11
0.13
0.22
0.41
0.67
0.89
0.96
0.84
0.53
0.10
-0.35
-0.70
-0.87
-0.84
-0.65
-0.37
-0.08
0.15
0.31
0.42
0.52
0.60
0.67
0.72
0.73
0.67
0.50
0.24
-0.10
-0.41
-0.60
-0.59
-0.39
-0.10
0.13
0.17
-0.04
-0.43
-0.85
-1.15
-1.22
-1.07
-0.78
-0.49
-0.31
-0.29
-0.42
-0.59
-0.68
-0.63
-0.41
-0.09
0.22
0.40
0.41
0.26
0.04
-0.14
-0.21
-0.10
0.15
0.47
0.76
0.93
0.92
0.70
0.29
-0.26
-0.88
-1.43
-1.82
-1.92
-1.72
-1.27
-0.69
-0.12
0.31
0.58
0.75
0.91
1.11
1.35
1.55
1.63
1.54
1.31
1.06
0.93
0.98
1.17
1.36
1.38
1.16
0.74
0.29
-0.01
-0.08
0.02
0.16
0.21
0.12
-0.06
-0.22
-0.26
-0.18
-0.01
0.19
0.37
0.54
0.68
0.78
0.77
0.63
0.37
0.08
-0.17
-0.31
-0.38
-0.47
-0.64
-0.90
-1.21
-1.45
-1.55
-1.43
-1.08
-0.52
0.16
0.81
1.29
1.49
1.36
0.97
0.48
0.01
-0.35
-0.60
-0.75
-0.83
-0.79
-0.58
-0.19
0.32
0.83
1.22
1.42
1.41
1.24
0.96
0.66
0.41
0.26
0.25
0.33
0.42
0.43
0.33
0.15
-0.05
-0.17
-0.19
-0.16
-0.15
-0.22
-0.38
-0.59
-0.76
-0.83
-0.78
-0.62
-0.37
-0.05
0.29
0.58
0.76
0.77
0.62
0.36
0.11
-0.04
-0.08
-0.05
-0.05
-0.15
-0.32
-0.51
-0.62
-0.60
-0.46
-0.29
-0.20
-0.21
-0.32
-0.44
-0.48
-0.39
-0.20
0.03
0.23
0.34
0.37
0.34
0.26
0.10
-0.15
-0.51
-0.92
-1.26
-1.42
-1.36
-1.14
-0.89
-0.73
-0.70
-0.76
-0.81
-0.75
-0.56
-0.33
-0.15
-0.12
-0.23
-0.43
-0.61
-0.68
-0.60
-0.35
0.02
0.44
0.83
1.10
1.23
1.23
1.18
1.22
1.39
1.69
1.98
2.17
2.18
2.07
1.98
2.02
2.19
2.43
2.60
2.61
2.46
2.23
1.98
1.74
1.48
1.17
0.85
0.56
0.38
0.32
0.32
0.30
0.17
-0.05
-0.30
-0.47
-0.53
-0.53
-0.59
-0.79
-1.19
-1.71
-2.20
-2.53
-2.58
-2.34
-1.89
-1.37
-0.94
-0.71
-0.73
-0.98
-1.33
-1.68
-1.89
-1.93
-1.80
-1.55
-1.25
-0.94
-0.62
-0.32
-0.05
0.14
0.23
0.22
0.14
0.02
-0.10
-0.18
-0.18
-0.08
0.15
0.48
0.83
1.08
1.13
0.94
0.61
0.29
0.15
0.22
0.44
0.62
0.59
0.29
-0.20
-0.68
-0.98
-1.02
-0.87
-0.66
-0.54
-0.55
-0.64
-0.68
-0.61
-0.42
-0.17
0.01
0.07
-0.00
-0.10
-0.11
0.06
0.38
0.73
0.97
0.96
0.70
0.27
-0.15
-0.44
-0.57
-0.57
-0.53
-0.48
-0.41
-0.23
0.07
0.45
0.78
0.91
0.83
0.57
0.27
0.07
-0.02
0.00
0.03
0.00
-0.09
-0.21
-0.31
-0.36
-0.34
-0.28
-0.20
-0.12
-0.07
-0.04
-0.02
0.00
0.05
0.10
0.13
0.09
-0.01
-0.14
-0.26
-0.33
-0.37
-0.38
-0.39
-0.39
-0.33
-0.20
0.02
0.28
0.50
0.63
0.65
0.60
0.51
0.44
0.39
0.34
0.24
0.04
-0.27
-0.62
-0.90
-0.98
-0.81
-0.39
0.15
0.65
0.94
0.99
0.85
0.64
0.50
0.50
0.62
0.79
0.93
1.01
1.05
1.09
1.12
1.09
0.91
0.52
-0.06
-0.73
-1.30
-1.59
-1.54
-1.21
-0.75
-0.31
-0.01
0.15
0.22
0.24
0.23
0.14
-0.09
-0.47
-0.93
-1.34
-1.57
-1.54
-1.32
-1.03
-0.84
-0.84
-1.03
-1.32
-1.57
-1.69
-1.62
-1.41
-1.10
-0.73
-0.33
0.12
0.57
0.98
1.32
1.54
1.69
1.80
1.94
2.13
2.35
2.52
2.57
2.42
2.07
1.59
1.06
0.60
0.29
0.14
0.10
0.06
-0.05
-0.26
-0.54
-0.78
-0.90
-0.88
-0.76
-0.65
-0.63
-0.73
-0.92
-1.15
-1.32
-1.39
-1.35
-1.24
-1.09
-0.92
-0.75
-0.58
-0.41
-0.25
-0.15
-0.11
-0.15
-0.19
-0.18
-0.04
0.24
0.60
0.93
1.15
1.21
1.15
1.00
0.86
0.75
0.72
0.75
0.84
0.93
0.97
0.90
0.67
0.30
-0.12
-0.46
-0.60
-0.51
-0.27
0.00
0.17
0.15
-0.02
-0.28
-0.55
-0.77
-0.91
-0.98
-0.98
-0.92
-0.81
-0.70
-0.61
-0.53
-0.44
-0.31
-0.12
0.09
0.25
0.32
0.29
0.21
0.15
0.14
0.14
0.09
-0.08
-0.37
-0.70
-0.94
-0.99
-0.84
-0.56
-0.24
-0.01
0.09
0.06
-0.03
-0.12
-0.17
-0.17
-0.12
-0.04
0.08
0.24
0.41
0.57
0.66
0.66
0.57
0.45
0.34
0.27
0.21
0.12
-0.01
-0.18
-0.32
-0.35
-0.23
0.00
0.26
0.46
0.53
0.47
0.34
0.20
0.12
0.16
0.31
0.52
0.71
0.78
0.64
0.31
-0.13
-0.56
-0.83
-0.91
-0.83
-0.69
-0.62
-0.68
-0.82
-0.94
-0.96
-0.79
-0.50
-0.15
0.14
0.29
0.28
0.15
-0.06
-0.28
-0.46
-0.55
-0.50
-0.29
0.10
0.60
1.13
1.57
1.81
1.80
1.54
1.10
0.59
0.12
-0.21
-0.36
-0.35
-0.27
-0.22
-0.27
-0.44
-0.69
-0.93
-1.05
-1.00
-0.79
-0.49
-0.17
0.10
0.29
0.39
0.38
0.25
0.04
-0.19
-0.31
-0.26
-0.01
0.32
0.57
0.61
0.41
0.08
-0.20
-0.29
-0.15
0.14
0.45
0.68
0.83
0.93
1.03
1.11
1.07
0.85
0.43
-0.11
-0.63
-0.98
-1.10
-1.02
-0.84
-0.65
-0.48
-0.34
-0.17
0.02
0.21
0.34
0.36
0.25
0.10
-0.00
0.02
0.20
0.45
0.66
0.72
0.59
0.34
0.07
-0.12
-0.21
-0.26
-0.34
-0.48
-0.65
-0.78
-0.81
-0.77
-0.71
-0.70
-0.76
-0.87
-0.95
-0.98
-0.93
-0.82
-0.65
-0.39
-0.03
0.41
0.85
1.17
1.23
1.00
0.57
0.08
-0.30
-0.47
-0.44
-0.30
-0.15
-0.04
0.05
0.16
0.33
0.52
0.65
0.67
0.56
0.36
0.15
0.00
-0.08
-0.14
-0.21
-0.31
-0.40
-0.42
-0.31
-0.07
0.24
0.51
0.61
0.48
0.15
-0.28
-0.64
-0.78
-0.63
-0.22
0.34
0.89
1.29
1.46
1.38
1.12
0.76
0.37
-0.00
-0.31
-0.53
-0.64
-0.65
-0.58
-0.48
-0.38
-0.29
-0.22
-0.14
-0.07
-0.02
-0.02
-0.09
-0.16
-0.20
-0.16
-0.07
-0.01
-0.04
-0.15
-0.27
-0.30
-0.24
-0.14
-0.12
-0.22
-0.39
-0.47
-0.34
0.03
0.48
0.81
0.83
0.54
0.10
-0.27
-0.44
-0.37
-0.17
0.06
0.26
0.44
0.61
0.77
0.85
0.76
0.48
0.07
-0.31
-0.54
-0.52
-0.30
0.02
0.30
0.47
0.49
0.38
0.19
-0.03
-0.23
-0.36
-0.40
-0.36
-0.25
-0.15
-0.08
-0.06
-0.07
-0.05
-0.01
0.05
0.10
0.11
0.05
-0.03
-0.12
-0.17
-0.16
-0.10
0.00
0.10
0.17
0.16
0.07
-0.13
-0.40
-0.69
-0.91
-1.00
-0.89
-0.61
-0.26
0.04
0.19
0.15
-0.02
-0.19
-0.24
-0.12
0.12
0.35
0.47
0.43
0.30
0.23
0.34
0.65
1.00
1.21
1.13
0.73
0.17
-0.35
-0.65
-0.67
-0.48
-0.18
0.12
0.38
0.59
0.71
0.67
0.40
-0.07
-0.63
-1.07
-1.21
-0.95
-0.38
0.33
0.96
1.35
1.42
1.21
0.81
0.33
-0.12
-0.43
-0.58
-0.55
-0.42
-0.28
-0.20
-0.22
-0.29
-0.34
-0.30
-0.14
0.10
0.34
0.49
0.49
0.32
0.04
-0.28
-0.54
-0.64
-0.54
-0.22
0.26
0.80
1.26
1.53
1.54
1.30
0.88
0.36
-0.17
-0.64
-1.01
-1.22
-1.22
-0.98
-0.54
-0.02
0.42
0.63
0.53
0.20
-0.23
-0.57
-0.70
-0.57
-0.25
0.13
0.44
0.58
0.49
0.19
-0.25
-0.72
-1.08
-1.23
-1.13
-0.81
-0.40
-0.06
0.07
-0.01
-0.24
-0.46
-0.54
-0.42
-0.17
0.08
0.19
0.12
-0.12
-0.43
-0.69
-0.84
-0.83
-0.69
-0.45
-0.17
0.09
0.27
0.33
0.29
0.19
0.11
0.06
0.06
0.08
0.10
0.09
0.06
-0.02
-0.11
-0.22
-0.28
-0.24
-0.08
0.20
0.53
0.79
0.88
0.75
0.41
-0.06
-0.51
-0.82
-0.90
-0.74
-0.43
-0.09
0.14
0.18
0.06
-0.16
-0.38
-0.53
-0.59
-0.54
-0.39
-0.14
0.16
0.46
0.66
0.69
0.55
0.32
0.09
-0.04
-0.04
0.07
0.24
0.43
0.59
0.72
0.79
0.81
0.81
0.85
0.99
1.23
1.55
1.85
2.04
2.07
1.94
1.71
1.41
1.04
0.62
0.16
-0.28
-0.62
-0.80
-0.83
-0.77
-0.71
-0.71
-0.74
-0.75
-0.69
-0.52
-0.29
-0.10
-0.04
-0.16
-0.43
-0.77
-1.07
-1.22
-1.14
-0.84
-0.39
0.09
0.48
0.68
0.67
0.46
0.16
-0.13
-0.33
-0.39
-0.31
-0.14
0.05
0.20
0.27
0.25
0.16
-0.00
-0.18
-0.33
-0.43
-0.48
-0.51
-0.56
-0.64
-0.71
-0.69
-0.53
-0.24
0.09
0.30
0.32
0.16
-0.08
-0.24
-0.23
-0.07
0.16
0.35
0.45
0.46
0.44
0.42
0.43
0.45
0.49
0.54
0.59
0.64
0.67
0.65
0.60
0.51
0.39
0.25
0.07
-0.13
-0.33
-0.49
-0.59
-0.61
-0.61
-0.62
-0.66
-0.71
-0.74
-0.68
-0.57
-0.45
-0.40
-0.47
-0.63
-0.78
-0.82
-0.66
-0.34
0.06
0.39
0.57
0.57
0.44
0.24
0.03
-0.15
-0.27
-0.27
-0.13
0.14
0.47
0.72
0.79
0.64
0.33
-0.01
-0.22
-0.23
-0.05
0.20
0.39
0.42
0.29
0.05
-0.20
-0.38
-0.47
-0.50
-0.52
-0.56
-0.58
-0.53
-0.34
-0.02
0.35
0.63
0.70
0.52
0.18
-0.19
-0.44
-0.52
-0.45
-0.31
-0.14
0.05
0.28
0.57
0.86
1.07
1.11
0.95
0.63
0.25
-0.10
-0.35
-0.45
-0.43
-0.30
-0.09
0.13
0.31
0.40
0.38
0.24
0.05
-0.12
-0.21
-0.17
-0.04
0.14
0.28
0.33
0.26
0.11
-0.05
-0.15
-0.15
-0.03
0.17
0.36
0.50
0.54
0.47
0.33
0.19
0.09
0.08
0.13
0.22
0.30
0.36
0.38
0.38
0.35
0.28
0.16
-0.02
-0.20
-0.30
-0.27
-0.11
0.10
0.23
0.19
-0.06
-0.42
-0.76
-0.98
-1.06
-1.06
-1.03
-1.01
-0.98
-0.91
-0.78
-0.63
-0.49
-0.39
-0.30
-0.17
0.04
0.34
0.70
1.04
1.26
1.26
1.02
0.58
0.04
-0.44
-0.77
-0.91
-0.89
-0.80
-0.68
-0.56
-0.39
-0.15
0.14
0.42
0.59
0.60
0.45
0.25
0.10
0.09
0.21
0.38
0.48
0.42
0.20
-0.09
-0.30
-0.32
-0.15
0.13
0.40
0.56
0.59
0.54
0.43
0.28
0.05
-0.24
-0.54
-0.72
-0.66
-0.34
0.12
0.55
0.79
0.80
0.60
0.34
0.11
-0.05
-0.15
-0.21
-0.25
-0.25
-0.20
-0.14
-0.13
-0.22
-0.39
-0.56
-0.61
-0.46
-0.15
0.22
0.50
0.56
0.40
0.06
-0.31
-0.62
-0.78
-0.78
-0.63
-0.35
0.02
0.43
0.76
0.92
0.85
0.54
0.07
-0.44
-0.84
-1.04
-1.00
-0.73
-0.32
0.10
0.42
0.56
0.51
0.36
0.23
0.20
0.25
0.31
0.29
0.16
-0.04
-0.18
-0.17
0.01
0.28
0.54
0.69
0.71
0.65
0.56
0.48
0.39
0.27
0.09
-0.16
-0.43
-0.63
-0.70
-0.59
-0.32
0.05
0.36
0.52
0.48
0.28
0.01
-0.19
-0.27
-0.22
-0.12
-0.05
-0.08
-0.22
-0.41
-0.58
-0.66
-0.62
-0.47
-0.28
-0.11
-0.00
0.04
0.05
0.03
-0.02
-0.09
-0.19
-0.28
-0.28
-0.15
0.11
0.43
0.70
0.83
0.81
0.68
0.57
0.56
0.66
0.82
0.92
0.89
0.68
0.36
0.01
-0.26
-0.38
-0.37
-0.27
-0.14
-0.06
-0.05
-0.12
-0.20
-0.23
-0.16
-0.00
0.17
0.28
0.24
0.08
-0.12
-0.29
-0.38
-0.40
-0.45
-0.59
-0.81
-1.05
-1.20
-1.20
-1.04
-0.80
-0.54
-0.32
-0.17
-0.06
0.04
0.12
0.19
0.24
0.26
0.26
0.25
0.24
0.22
0.21
0.20
0.21
0.23
0.22
0.16
0.04
-0.13
-0.28
-0.34
-0.26
-0.08
0.11
0.19
0.12
-0.06
-0.21
-0.22
-0.04
0.27
0.59
0.80
0.87
0.83
0.76
0.71
0.67
0.59
0.40
0.11
-0.22
-0.48
-0.60
-0.53
-0.33
-0.06
0.21
0.43
0.58
0.63
0.54
0.30
-0.07
-0.49
-0.85
-1.04
-1.03
-0.83
-0.55
-0.26
-0.01
0.19
0.33
0.42
0.42
0.29
0.01
-0.35
-0.72
-0.98
-1.04
-0.89
-0.55
-0.15
0.19
0.37
0.35
0.19
-0.01
-0.13
-0.12
-0.01
0.14
0.23
0.25
0.20
0.12
0.06
0.01
-0.01
-0.02
0.02
0.14
0.33
0.53
0.69
0.74
0.65
0.48
0.26
0.06
-0.10
-0.21
-0.28
-0.30
-0.26
-0.18
-0.10
-0.06
-0.10
-0.15
-0.14
-0.01
0.24
0.49
0.62
0.54
0.26
-0.12
-0.45
-0.64
-0.64
-0.48
-0.18
0.19
0.58
0.91
1.07
0.99
0.68
0.23
-0.18
-0.42
-0.43
-0.24
0.02
0.25
0.37
0.37
0.28
0.12
-0.08
-0.30
-0.50
-0.65
-0.71
-0.67
-0.55
-0.41
-0.32
-0.32
-0.40
-0.49
-0.51
-0.37
-0.08
0.26
0.51
0.56
0.39
0.10
-0.17
-0.31
-0.29
-0.17
-0.03
0.06
0.08
0.07
0.06
0.06
0.04
-0.03
-0.15
-0.27
-0.32
-0.19
0.13
0.58
1.04
1.36
1.44
1.26
0.90
0.46
0.05
-0.25
-0.41
-0.40
-0.26
-0.04
0.20
0.35
0.34
0.16
-0.13
-0.40
-0.53
-0.44
-0.18
0.16
0.44
0.56
0.48
0.25
-0.07
-0.38
-0.61
-0.73
-0.74
-0.66
-0.53
-0.38
-0.24
-0.14
-0.12
-0.20
-0.38
-0.61
-0.79
-0.86
-0.77
-0.51
-0.18
0.15
0.38
0.47
0.44
0.34
0.24
0.21
0.26
0.35
0.44
0.49
0.46
0.38
0.27
0.16
0.05
-0.08
-0.23
-0.38
-0.48
-0.46
-0.28
0.03
0.37
0.63
0.70
0.55
0.23
-0.17
-0.52
-0.72
-0.71
-0.50
-0.17
0.19
0.46
0.58
0.54
0.40
0.26
0.20
0.22
0.29
0.34
0.30
0.18
0.02
-0.08
-0.06
0.09
0.31
0.51
0.58
0.46
0.18
-0.19
-0.54
-0.75
-0.81
-0.71
-0.51
-0.28
-0.07
0.06
0.06
-0.07
-0.26
-0.40
-0.38
-0.18
0.12
0.39
0.51
0.44
0.28
0.14
0.07
0.07
0.06
-0.01
-0.08
-0.09
0.00
0.17
0.28
0.21
-0.05
-0.42
-0.71
-0.77
-0.56
-0.14
0.34
0.74
0.98
1.03
0.90
0.63
0.31
0.01
-0.19
-0.27
-0.26
-0.25
-0.29
-0.39
-0.48
-0.49
-0.38
-0.19
-0.02
0.05
-0.00
-0.13
-0.25
-0.28
-0.20
-0.02
0.22
0.47
0.68
0.78
0.73
0.53
0.23
-0.05
-0.20
-0.16
0.00
0.15
0.17
-0.00
-0.29
-0.56
-0.68
-0.59
-0.37
-0.13
-0.00
-0.04
-0.21
-0.44
-0.64
-0.75
-0.76
-0.67
-0.50
-0.27
-0.01
0.26
0.48
0.60
0.59
0.45
0.25
0.07
-0.03
-0.02
0.03
0.06
0.00
-0.14
-0.33
-0.50
-0.59
-0.55
-0.40
-0.16
0.13
0.44
0.71
0.87
0.87
0.70
0.39
0.03
-0.27
-0.46
-0.52
-0.48
-0.36
-0.19
-0.00
0.18
0.32
0.36
0.30
0.19
0.13
0.21
0.45
0.78
1.09
1.22
1.07
0.66
0.11
-0.40
-0.69
-0.66
-0.36
0.06
0.40
0.52
0.40
0.10
-0.23
-0.51
-0.70
-0.80
-0.84
-0.78
-0.62
-0.36
-0.07
0.14
0.20
0.11
-0.05
-0.16
-0.14
0.03
0.28
0.50
0.57
0.46
0.17
-0.20
-0.52
-0.67
-0.57
-0.23
0.23
0.65
0.87
0.83
0.59
0.26
-0.03
-0.17
-0.15
-0.03
0.12
0.22
0.24
0.16
0.00
-0.18
-0.33
-0.37
-0.27
-0.04
0.25
0.48
0.53
0.32
-0.08
-0.53
-0.87
-0.97
-0.83
-0.53
-0.20
0.06
0.24
0.35
0.42
0.45
0.40
0.26
0.05
-0.16
-0.27
-0.23
-0.08
0.13
0.31
0.40
0.39
0.29
0.14
-0.01
-0.09
-0.07
0.05
0.22
0.36
0.36
0.20
-0.09
-0.39
-0.55
-0.49
-0.23
0.13
0.44
0.57
0.50
0.30
0.04
-0.19
-0.35
-0.44
-0.46
-0.44
-0.38
-0.31
-0.24
-0.18
-0.12
-0.05
0.03
0.10
0.13
0.10
0.02
-0.05
-0.09
-0.10
-0.11
-0.18
-0.33
-0.52
-0.70
-0.78
-0.72
-0.54
-0.26
0.02
0.26
0.42
0.49
0.50
0.48
0.45
0.40
0.32
0.18
-0.04
-0.28
-0.46
-0.49
-0.35
-0.10
0.19
0.40
0.47
0.41
0.26
0.08
-0.08
-0.18
-0.24
-0.25
-0.22
-0.15
-0.03
0.12
0.26
0.33
0.31
0.16
-0.09
-0.38
-0.63
-0.77
-0.75
-0.56
-0.26
0.06
0.29
0.37
0.30
0.17
0.08
0.11
0.28
0.53
0.73
0.76
0.58
0.22
-0.19
-0.49
-0.60
-0.47
-0.17
0.17
0.44
0.52
0.41
0.17
-0.07
-0.22
-0.21
-0.04
0.20
0.45
0.61
0.66
0.60
0.49
0.40
0.37
0.38
0.37
0.29
0.11
-0.12
-0.29
-0.32
-0.20
0.01
0.17
0.18
-0.02
-0.39
-0.77
-1.04
-1.09
-0.92
-0.61
-0.30
-0.12
-0.10
-0.20
-0.31
-0.35
-0.28
-0.12
0.04
0.16
0.23
0.28
0.32
0.37
0.39
0.39
0.36
0.34
0.31
0.25
0.11
-0.12
-0.41
-0.65
-0.74
-0.66
-0.45
-0.23
-0.10
-0.10
-0.18
-0.26
-0.22
-0.04
0.23
0.51
0.69
0.73
0.65
0.50
0.35
0.27
0.23
0.22
0.19
0.15
0.10
0.10
0.14
0.18
0.15
-0.02
-0.33
-0.71
-1.05
-1.22
-1.18
-0.94
-0.57
-0.16
0.20
0.46
0.60
0.61
0.53
0.42
0.31
0.23
0.20
0.23
0.34
0.50
0.65
0.74
0.70
0.54
0.30
0.05
-0.14
-0.26
-0.33
-0.36
-0.35
-0.26
-0.07
0.19
0.45
0.60
0.62
0.50
0.30
0.06
-0.19
-0.42
-0.59
-0.64
-0.54
-0.28
0.06
0.38
0.55
0.53
0.33
0.04
-0.21
-0.33
-0.29
-0.13
0.06
0.21
0.23
0.13
-0.06
-0.30
-0.55
-0.78
-0.95
-1.04
-1.02
-0.89
-0.68
-0.42
-0.17
0.06
0.28
0.51
0.73
0.87
0.87
0.67
0.30
-0.15
-0.55
-0.79
-0.83
-0.71
-0.48
-0.23
0.02
0.23
0.39
0.47
0.44
0.29
0.07
-0.13
-0.23
-0.18
0.02
0.31
0.58
0.77
0.83
0.77
0.60
0.38
0.16
-0.00
-0.08
-0.07
-0.01
0.04
0.04
-0.04
-0.18
-0.33
-0.44
-0.50
-0.49
-0.44
-0.35
-0.22
-0.04
0.16
0.32
0.40
0.36
0.20
-0.04
-0.28
-0.41
-0.38
-0.17
0.16
0.48
0.71
0.76
0.67
0.51
0.34
0.25
0.22
0.24
0.26
0.21
0.07
-0.18
-0.52
-0.87
-1.12
-1.15
-0.90
-0.42
0.15
0.65
0.92
0.92
0.70
0.37
0.06
-0.16
-0.22
-0.13
0.07
0.32
0.55
0.69
0.73
0.66
0.51
0.32
0.14
0.00
-0.08
-0.12
-0.17
-0.26
-0.44
-0.68
-0.94
-1.16
-1.29
-1.27
-1.10
-0.83
-0.52
-0.26
-0.09
-0.03
-0.03
-0.01
0.09
0.24
0.35
0.32
0.10
-0.24
-0.55
-0.67
-0.52
-0.14
0.33
0.77
1.07
1.23
1.26
1.17
0.99
0.74
0.45
0.18
-0.03
-0.14
-0.15
-0.07
0.06
0.20
0.30
0.31
0.20
-0.01
-0.23
-0.39
-0.41
-0.30
-0.11
0.08
0.20
0.26
0.29
0.35
0.46
0.64
0.85
1.03
1.09
1.00
0.72
0.30
-0.20
-0.66
-0.97
-1.09
-1.01
-0.81
-0.58
-0.40
-0.31
-0.32
-0.41
-0.55
-0.71
-0.84
-0.88
-0.79
-0.58
-0.31
-0.04
0.14
0.18
0.11
-0.03
-0.18
-0.27
-0.28
-0.23
-0.12
0.00
0.14
0.27
0.41
0.53
0.62
0.63
0.53
0.33
0.06
-0.20
-0.38
-0.45
-0.42
-0.34
-0.25
-0.18
-0.12
-0.05
0.04
0.15
0.27
0.34
0.31
0.14
-0.15
-0.50
-0.82
-0.99
-0.95
-0.71
-0.33
0.08
0.41
0.57
0.54
0.32
0.01
-0.30
-0.50
-0.51
-0.35
-0.06
0.23
0.42
0.46
0.34
0.14
-0.06
-0.17
-0.17
-0.09
0.01
0.09
0.13
0.14
0.14
0.15
0.17
0.17
0.16
0.14
0.14
0.19
0.28
0.40
0.46
0.44
0.33
0.20
0.12
0.16
0.32
0.55
0.74
0.80
0.72
0.51
0.24
-0.03
-0.26
-0.44
-0.55
-0.57
-0.49
-0.32
-0.13
-0.02
-0.04
-0.18
-0.35
-0.42
-0.32
-0.08
0.20
0.42
0.51
0.51
0.51
0.55
0.62
0.62
0.49
0.22
-0.06
-0.25
-0.26
-0.12
0.09
0.25
0.32
0.34
0.32
0.27
0.15
-0.09
-0.45
-0.87
-1.22
-1.40
-1.34
-1.07
-0.67
-0.26
0.04
0.16
0.09
-0.12
-0.33
-0.45
-0.40
-0.22
-0.03
0.08
0.04
-0.09
-0.23
-0.28
-0.20
-0.01
0.20
0.37
0.45
0.46
0.39
0.28
0.13
-0.06
-0.20
-0.22
-0.07
0.22
0.55
0.78
0.81
0.62
0.29
-0.02
-0.18
-0.14
0.06
0.32
0.50
0.52
0.34
0.03
-0.31
-0.57
-0.70
-0.68
-0.56
-0.43
-0.33
-0.31
-0.36
-0.44
-0.50
-0.49
-0.38
-0.18
0.07
0.31
0.47
0.51
0.41
0.23
0.04
-0.09
-0.11
-0.04
0.04
0.08
0.01
-0.14
-0.30
-0.37
-0.28
-0.04
0.24
0.46
0.53
0.46
0.33
0.21
0.16
0.18
0.23
0.28
0.30
0.31
0.30
0.26
0.18
0.04
-0.16
-0.41
-0.66
-0.88
-1.06
-1.14
-1.11
-0.93
-0.60
-0.18
0.25
0.59
0.77
0.78
0.66
0.47
0.29
0.15
0.04
-0.04
-0.13
-0.23
-0.31
-0.35
-0.32
-0.19
0.02
0.27
0.49
0.61
0.61
0.54
0.46
0.46
0.57
0.74
0.86
0.81
0.59
0.29
0.04
-0.04
0.04
0.22
0.38
0.43
0.37
0.23
0.04
-0.16
-0.35
-0.50
-0.55
-0.46
-0.25
0.02
0.26
0.39
0.42
0.41
0.40
0.40
0.35
0.20
-0.07
-0.40
-0.70
-0.90
-0.99
-1.01
-1.01
-1.00
-0.92
-0.73
-0.45
-0.17
-0.00
-0.05
-0.29
-0.58
-0.76
-0.72
-0.47
-0.15
0.11
0.22
0.23
0.26
0.43
0.74
1.06
1.23
1.13
0.74
0.17
-0.41
-0.87
-1.11
-1.13
-0.98
-0.74
-0.50
-0.32
-0.21
-0.14
-0.08
0.01
0.13
0.24
0.28
0.23
0.14
0.11
0.21
0.47
0.80
1.10
1.25
1.22
1.03
0.73
0.39
0.05
-0.25
-0.48
-0.58
-0.54
-0.39
-0.18
0.02
0.15
0.21
0.23
0.22
0.17
0.06
-0.15
-0.42
-0.67
-0.83
-0.84
-0.71
-0.49
-0.24
0.01
0.23
0.45
0.65
0.79
0.79
0.66
0.41
0.16
-0.00
-0.01
0.10
0.25
0.35
0.33
0.20
0.02
-0.15
-0.25
-0.25
-0.17
-0.06
0.04
0.07
0.04
-0.05
-0.13
-0.17
-0.17
-0.13
-0.11
-0.13
-0.17
-0.19
-0.19
-0.17
-0.20
-0.30
-0.45
-0.56
-0.55
-0.34
0.02
0.43
0.72
0.80
0.63
0.32
0.02
-0.15
-0.12
0.06
0.28
0.42
0.43
0.34
0.25
0.24
0.32
0.45
0.53
0.51
0.36
0.12
-0.15
-0.41
-0.63
-0.80
-0.90
-0.93
-0.86
-0.71
-0.48
-0.22
0.06
0.33
0.55
0.70
0.73
0.66
0.51
0.35
0.22
0.17
0.21
0.31
0.42
0.50
0.53
0.49
0.35
0.11
-0.22
-0.58
-0.89
-1.06
-1.01
-0.74
-0.32
0.14
0.47
0.58
0.44
0.13
-0.20
-0.44
-0.48
-0.36
-0.16
0.02
0.05
-0.09
-0.36
-0.65
-0.82
-0.82
-0.68
-0.48
-0.33
-0.26
-0.25
-0.24
-0.15
0.03
0.24
0.39
0.42
0.32
0.16
0.04
0.03
0.12
0.26
0.40
0.49
0.57
0.65
0.78
0.91
0.97
0.88
0.62
0.25
-0.10
-0.26
-0.19
0.09
0.43
0.66
0.71
0.57
0.30
0.02
-0.25
-0.48
-0.68
-0.85
-0.94
-0.87
-0.63
-0.28
0.07
0.30
0.36
0.28
0.18
0.14
0.21
0.33
0.44
0.44
0.32
0.15
0.00
-0.06
-0.07
-0.09
-0.21
-0.44
-0.71
-0.91
-0.92
-0.71
-0.36
-0.01
0.22
0.23
0.09
-0.13
-0.34
-0.52
-0.68
-0.85
-1.00
-1.04
-0.87
-0.48
0.00
0.43
0.65
0.64
0.46
0.28
0.20
0.23
0.33
0.42
0.46
0.48
0.51
0.54
0.55
0.52
0.46
0.41
0.41
0.46
0.53
0.56
0.54
0.48
0.42
0.38
0.34
0.22
0.02
-0.24
-0.45
-0.53
-0.46
-0.30
-0.18
-0.19
-0.31
-0.45
-0.49
-0.37
-0.13
0.11
0.22
0.16
-0.04
-0.25
-0.37
-0.33
-0.15
0.09
0.32
0.50
0.61
0.68
0.74
0.76
0.70
0.54
0.28
-0.00
-0.21
-0.25
-0.13
0.07
0.20
0.15
-0.08
-0.40
-0.66
-0.77
-0.74
-0.64
-0.58
-0.56
-0.52
-0.40
-0.17
0.08
0.25
0.25
0.12
-0.06
-0.16
-0.14
-0.04
0.05
0.02
-0.17
-0.47
-0.80
-1.03
-1.08
-0.91
-0.57
-0.16
0.20
0.41
0.44
0.32
0.13
-0.01
-0.06
-0.00
0.14
0.30
0.43
0.52
0.56
0.58
0.60
0.64
0.69
0.73
0.77
0.77
0.74
0.64
0.45
0.17
-0.17
-0.50
-0.75
-0.87
-0.85
-0.72
-0.55
-0.39
-0.26
-0.16
-0.08
-0.02
0.03
0.06
0.09
0.11
0.11
0.10
0.09
0.08
0.05
-0.01
-0.13
-0.30
-0.45
-0.51
-0.40
-0.11
0.27
0.58
0.69
0.55
0.25
-0.04
-0.14
0.03
0.40
0.78
0.96
0.84
0.47
0.03
-0.30
-0.42
-0.36
-0.27
-0.27
-0.41
-0.60
-0.72
-0.70
-0.55
-0.33
-0.16
-0.06
-0.05
-0.05
-0.04
-0.02
-0.02
-0.09
-0.22
-0.38
-0.50
-0.51
-0.39
-0.18
0.02
0.14
0.13
0.02
-0.09
-0.15
-0.11
-0.00
0.14
0.27
0.37
0.45
0.50
0.52
0.51
0.48
0.48
0.54
0.63
0.71
0.71
0.59
0.35
0.07
-0.17
-0.31
-0.33
-0.25
-0.12
-0.02
-0.00
-0.09
-0.24
-0.39
-0.47
-0.45
-0.32
-0.13
0.08
0.24
0.35
0.39
0.37
0.32
0.23
0.11
-0.03
-0.19
-0.36
-0.47
-0.50
-0.41
-0.25
-0.08
-0.04
-0.18
-0.46
-0.74
-0.88
-0.78
-0.47
-0.08
0.24
0.43
0.49
0.49
0.47
0.44
0.34
0.16
-0.09
-0.29
-0.35
-0.20
0.12
0.52
0.85
1.03
1.00
0.79
0.46
0.07
-0.30
-0.58
-0.70
-0.64
-0.41
-0.10
0.19
0.36
0.38
0.27
0.10
-0.07
-0.18
-0.24
-0.26
-0.25
-0.22
-0.15
-0.04
0.05
0.10
0.08
0.02
-0.04
-0.04
0.04
0.15
0.24
0.28
0.28
0.27
0.27
0.25
0.15
-0.04
-0.31
-0.58
-0.76
-0.81
-0.71
-0.52
-0.31
-0.13
-0.01
0.06
0.10
0.15
0.23
0.33
0.40
0.38
0.24
-0.01
-0.26
-0.42
-0.41
-0.25
-0.05
0.13
0.23
0.30
0.38
0.49
0.58
0.54
0.31
-0.07
-0.48
-0.76
-0.79
-0.57
-0.21
0.17
0.44
0.60
0.67
0.70
0.71
0.66
0.52
0.28
-0.02
-0.26
-0.34
-0.23
0.04
0.33
0.52
0.51
0.31
0.03
-0.19
-0.26
-0.18
-0.03
0.08
0.07
-0.07
-0.27
-0.43
-0.48
-0.41
-0.26
-0.13
-0.05
-0.06
-0.12
-0.20
-0.26
-0.27
-0.22
-0.12
0.02
0.14
0.21
0.23
0.22
0.24
0.32
0.46
0.57
0.54
0.31
-0.09
-0.53
-0.82
-0.86
-0.64
-0.30
0.00
0.16
0.15
0.07
-0.00
0.00
0.06
0.11
0.09
-0.02
-0.21
-0.43
-0.63
-0.77
-0.79
-0.68
-0.43
-0.08
0.27
0.53
0.65
0.66
0.61
0.54
0.47
0.36
0.19
-0.03
-0.24
-0.37
-0.35
-0.23
-0.09
-0.02
-0.05
-0.15
-0.26
-0.29
-0.22
-0.07
0.09
0.22
0.28
0.27
0.19
0.07
-0.07
-0.17
-0.20
-0.14
-0.03
0.08
0.13
0.13
0.11
0.12
0.17
0.25
0.29
0.27
0.20
0.12
0.10
0.15
0.22
0.25
0.23
0.17
0.14
0.19
0.31
0.43
0.43
0.29
0.04
-0.20
-0.32
-0.30
-0.18
-0.07
-0.04
-0.12
-0.24
-0.36
-0.43
-0.46
-0.50
-0.54
-0.59
-0.64
-0.68
-0.73
-0.83
-0.96
-1.06
-1.06
-0.89
-0.55
-0.11
0.35
0.74
1.00
1.10
1.05
0.86
0.57
0.23
-0.05
-0.20
-0.16
0.03
0.28
0.50
0.59
0.56
0.46
0.35
0.29
0.27
0.25
0.20
0.09
-0.02
-0.05
0.06
0.31
0.65
0.96
1.14
1.12
0.91
0.61
0.34
0.18
0.14
0.18
0.21
0.19
0.11
0.01
-0.10
-0.22
-0.36
-0.52
-0.65
-0.71
-0.63
-0.46
-0.28
-0.22
-0.31
-0.52
-0.75
-0.89
-0.90
-0.83
-0.74
-0.66
-0.61
-0.56
-0.48
-0.41
-0.36
-0.33
-0.28
-0.16
0.11
0.51
0.96
1.33
1.50
1.45
1.20
0.82
0.40
0.02
-0.27
-0.43
-0.48
-0.43
-0.35
-0.30
-0.30
-0.36
-0.43
-0.45
-0.37
-0.19
0.04
0.25
0.38
0.42
0.42
0.40
0.41
0.42
0.38
0.24
-0.01
-0.32
-0.58
-0.68
-0.56
-0.25
0.14
0.44
0.54
0.39
0.01
-0.47
-0.90
-1.13
-1.11
-0.87
-0.50
-0.12
0.18
0.37
0.44
0.38
0.19
-0.11
-0.44
-0.69
-0.73
-0.49
-0.00
0.58
1.07
1.33
1.31
1.07
0.70
0.32
-0.03
-0.29
-0.47
-0.54
-0.48
-0.31
-0.05
0.22
0.43
0.52
0.48
0.36
0.23
0.14
0.13
0.18
0.22
0.22
0.15
0.01
-0.14
-0.24
-0.25
-0.14
0.05
0.28
0.49
0.63
0.65
0.55
0.33
0.05
-0.23
-0.44
-0.55
-0.52
-0.39
-0.21
-0.05
0.03
0.03
-0.06
-0.22
-0.40
-0.58
-0.72
-0.78
-0.71
-0.51
-0.24
0.03
0.20
0.20
0.07
-0.10
-0.18
-0.09
0.15
0.42
0.59
0.55
0.32
0.01
-0.23
-0.28
-0.13
0.12
0.34
0.40
0.29
0.06
-0.19
-0.37
-0.46
-0.46
-0.41
-0.31
-0.17
0.03
0.21
0.33
0.29
0.07
-0.27
-0.63
-0.86
-0.85
-0.57
-0.09
0.48
0.97
1.27
1.35
1.21
0.94
0.65
0.45
0.37
0.42
0.51
0.55
0.45
0.18
-0.20
-0.59
-0.84
-0.89
-0.77
-0.58
-0.40
-0.32
-0.31
-0.34
-0.36
-0.38
-0.42
-0.51
-0.60
-0.64
-0.54
-0.31
0.00
0.27
0.41
0.36
0.20
0.01
-0.07
-0.02
0.12
0.26
0.30
0.19
-0.01
-0.21
-0.34
-0.37
-0.33
-0.25
-0.19
-0.12
-0.05
0.04
0.12
0.18
0.20
0.23
0.32
0.52
0.77
0.98
1.03
0.87
0.51
0.05
-0.39
-0.69
-0.81
-0.74
-0.54
-0.28
-0.01
0.22
0.42
0.59
0.75
0.87
0.90
0.79
0.54
0.24
-0.01
-0.09
0.04
0.31
0.61
0.81
0.84
0.70
0.44
0.09
-0.30
-0.68
-0.98
-1.14
-1.09
-0.81
-0.38
0.10
0.47
0.64
0.60
0.40
0.13
-0.12
-0.29
-0.40
-0.47
-0.52
-0.56
-0.59
-0.57
-0.51
-0.39
-0.26
-0.12
0.01
0.13
0.25
0.35
0.42
0.40
0.29
0.10
-0.12
-0.33
-0.49
-0.63
-0.72
-0.77
-0.73
-0.58
-0.34
-0.07
0.15
0.25
0.28
0.31
0.38
0.49
0.57
0.55
0.42
0.23
0.07
-0.03
-0.12
-0.25
-0.44
-0.62
-0.67
-0.51
-0.18
0.20
0.48
0.55
0.46
0.32
0.22
0.19
0.16
0.09
-0.05
-0.17
-0.20
-0.08
0.14
0.33
0.36
0.20
-0.08
-0.32
-0.38
-0.24
-0.00
0.17
0.15
-0.04
-0.28
-0.42
-0.38
-0.20
-0.02
0.06
0.00
-0.10
-0.12
-0.01
0.19
0.35
0.39
0.30
0.15
0.08
0.15
0.34
0.53
0.61
0.49
0.22
-0.08
-0.26
-0.24
-0.05
0.20
0.35
0.34
0.15
-0.11
-0.36
-0.51
-0.56
-0.57
-0.57
-0.58
-0.56
-0.47
-0.31
-0.12
0.00
-0.03
-0.21
-0.46
-0.61
-0.55
-0.25
0.17
0.54
0.67
0.53
0.18
-0.18
-0.38
-0.35
-0.12
0.19
0.43
0.51
0.45
0.30
0.12
-0.02
-0.10
-0.11
-0.04
0.12
0.34
0.59
0.76
0.77
0.56
0.15
-0.37
-0.85
-1.14
-1.15
-0.88
-0.40
0.16
0.66
0.99
1.11
1.04
0.85
0.61
0.37
0.14
-0.06
-0.23
-0.36
-0.44
-0.46
-0.44
-0.39
-0.29
-0.17
-0.03
0.07
0.09
0.00
-0.14
-0.25
-0.20
0.06
0.45
0.82
1.03
1.01
0.80
0.50
0.24
0.06
-0.05
-0.12
-0.13
-0.08
0.08
0.34
0.64
0.90
1.00
0.93
0.72
0.45
0.22
0.11
0.13
0.21
0.23
0.12
-0.18
-0.59
-1.01
-1.31
-1.44
-1.41
-1.30
-1.16
-1.01
-0.84
-0.63
-0.42
-0.27
-0.21
-0.24
-0.26
-0.19
0.02
0.33
0.61
0.71
0.55
0.18
-0.26
-0.58
-0.66
-0.52
-0.24
0.00
0.12
0.10
-0.03
-0.18
-0.28
-0.31
-0.25
-0.12
0.07
0.29
0.51
0.66
0.73
0.71
0.63
0.51
0.37
0.20
0.02
-0.14
-0.25
-0.28
-0.22
-0.11
0.01
0.08
0.10
0.06
-0.00
-0.09
-0.21
-0.33
-0.44
-0.49
-0.43
-0.29
-0.09
0.09
0.20
0.22
0.18
0.16
0.19
0.28
0.42
0.55
0.63
0.65
0.62
0.52
0.36
0.14
-0.10
-0.32
-0.49
-0.60
-0.70
-0.79
-0.90
-0.96
-0.92
-0.74
-0.42
-0.06
0.25
0.42
0.42
0.31
0.16
0.05
-0.03
-0.08
-0.14
-0.19
-0.22
-0.20
-0.15
-0.10
-0.08
-0.08
-0.07
-0.01
0.11
0.28
0.44
0.54
0.57
0.53
0.45
0.33
0.18
-0.01
-0.23
-0.41
-0.49
-0.42
-0.22
0.02
0.21
0.28
0.22
0.10
0.01
0.00
0.06
0.12
0.11
0.01
-0.11
-0.17
-0.07
0.18
0.50
0.78
0.93
0.91
0.77
0.55
0.30
0.04
-0.21
-0.40
-0.48
-0.40
-0.16
0.14
0.40
0.53
0.51
0.36
0.16
-0.03
-0.18
-0.30
-0.42
-0.55
-0.68
-0.76
-0.76
-0.68
-0.54
-0.36
-0.20
-0.08
-0.02
-0.01
-0.01
-0.01
0.00
0.01
-0.01
-0.06
-0.15
-0.26
-0.36
-0.40
-0.35
-0.24
-0.08
0.06
0.13
0.13
0.07
-0.02
-0.09
-0.10
-0.02
0.13
0.34
0.58
0.79
0.93
0.95
0.84
0.60
0.31
0.07
-0.02
0.09
0.36
0.69
0.92
0.96
0.77
0.44
0.06
-0.28
-0.54
-0.74
-0.90
-1.01
-1.00
-0.86
-0.59
-0.27
-0.02
0.12
0.09
-0.07
-0.33
-0.60
-0.84
-0.96
-0.92
-0.69
-0.31
0.12
0.51
0.78
0.90
0.89
0.79
0.61
0.37
0.09
-0.14
-0.22
-0.11
0.15
0.44
0.60
0.57
0.38
0.15
0.01
0.01
0.11
0.22
0.26
0.21
0.10
-0.03
-0.17
-0.33
-0.51
-0.69
-0.80
-0.77
-0.61
-0.38
-0.18
-0.07
-0.10
-0.20
-0.30
-0.32
-0.21
0.01
0.25
0.45
0.54
0.54
0.47
0.40
0.34
0.30
0.24
0.15
0.07
0.02
0.03
0.11
0.18
0.20
0.13
-0.02
-0.20
-0.39
-0.57
-0.74
-0.87
-0.91
-0.81
-0.57
-0.21
0.16
0.43
0.55
0.50
0.33
0.10
-0.14
-0.35
-0.52
-0.64
-0.68
-0.61
-0.45
-0.22
0.03
0.25
0.44
0.59
0.73
0.83
0.88
0.79
0.56
0.21
-0.11
-0.25
-0.10
0.30
0.78
1.12
1.17
0.90
0.45
-0.00
-0.29
-0.37
-0.30
-0.21
-0.17
-0.20
-0.27
-0.32
-0.34
-0.35
-0.40
-0.49
-0.61
-0.69
-0.71
-0.65
-0.57
-0.51
-0.49
-0.50
-0.49
-0.38
-0.15
0.17
0.52
0.80
0.97
1.01
0.94
0.77
0.53
0.24
-0.03
-0.21
-0.22
-0.03
0.28
0.57
0.72
0.66
0.45
0.20
0.04
0.02
0.11
0.20
0.26
0.25
0.22
0.22
0.27
0.36
0.43
0.43
0.33
0.16
-0.05
-0.24
-0.39
-0.49
-0.56
-0.61
-0.66
-0.70
-0.70
-0.66
-0.59
-0.51
-0.42
-0.29
-0.09
0.18
0.46
0.69
0.80
0.79
0.67
0.50
0.33
0.18
0.03
-0.15
-0.38
-0.64
-0.87
-0.98
-0.90
-0.63
-0.24
0.14
0.36
0.35
0.13
-0.15
-0.37
-0.44
-0.37
-0.23
-0.12
-0.09
-0.13
-0.17
-0.12
0.06
0.35
0.67
0.93
1.03
0.93
0.70
0.45
0.30
0.33
0.51
0.74
0.92
0.98
0.89
0.69
0.39
0.03
-0.33
-0.60
-0.69
-0.56
-0.25
0.10
0.34
0.35
0.14
-0.23
-0.64
-0.99
-1.22
-1.29
-1.18
-0.90
-0.49
-0.07
0.26
0.37
0.24
-0.09
-0.48
-0.82
-1.04
-1.10
-1.05
-0.90
-0.67
-0.40
-0.09
0.21
0.44
0.58
0.59
0.47
0.24
-0.06
-0.35
-0.56
-0.61
-0.47
-0.19
0.15
0.43
0.55
0.54
0.47
0.49
0.65
0.91
1.12
1.15
0.92
0.53
0.13
-0.14
-0.24
-0.23
-0.24
-0.32
-0.48
-0.65
-0.77
-0.84
-0.94
-1.15
-1.50
-1.92
-2.29
-2.47
-2.41
-2.12
-1.75
-1.45
-1.35
-1.50
-1.81
-2.21
-2.58
-2.90
-3.22
-3.57
-3.97
-4.36
-4.67
-4.85
-4.95
-5.05
-5.24
-5.50
-5.76
-5.95
-6.05
-6.14
-6.35
-6.79
-7.47
-8.28
-9.06
-9.66
-9.97
-9.96
-9.61
-8.91
-7.85
-6.44
-4.68
-2.56
-0.03
2.99
6.55
10.59
14.81
18.81
22.09
24.30
25.32
25.27
24.41
23.02
21.28
19.33
17.27
15.28
13.52
12.10
10.94
9.83
8.51
6.89
5.06
3.33
2.01
1.26
1.07
1.22
1.44
1.54
1.44
1.13
0.67
0.13
-0.40
-0.86
-1.20
-1.44
-1.66
-1.98
-2.45
-3.06
-3.70
-4.27
-4.66
-4.87
-4.93
-4.88
-4.75
-4.55
-4.28
-3.98
-3.71
-3.53
-3.50
-3.60
-3.80
-4.04
-4.26
-4.46
-4.66
-4.90
-5.17
-5.41
-5.51
-5.37
-4.96
-4.34
-3.65
-3.01
-2.49
-2.08
-1.79
-1.63
-1.68
-2.03
-2.76
-3.81
-5.06
-6.31
-7.34
-8.04
-8.35
-8.31
-8.01
-7.57
-7.07
-6.58
-6.09
-5.57
-4.97
-4.32
-3.70
-3.19
-2.84
-2.59
-2.27
-1.66
-0.58
1.00
2.97
5.10
7.12
8.81
10.06
10.81
11.10
10.95
10.41
9.55
8.48
7.34
6.29
5.44
4.82
4.34
3.86
3.32
2.71
2.17
1.82
1.73
1.82
1.87
1.69
1.20
0.47
-0.28
-0.83
-1.05
-0.96
-0.71
-0.45
-0.29
-0.28
-0.42
-0.68
-1.03
-1.44
-1.84
-2.18
-2.43
-2.56
-2.61
-2.60
-2.53
-2.44
-2.29
-2.07
-1.78
-1.40
-0.93
-0.40
0.15
0.64
0.99
1.17
1.16
0.96
0.61
0.11
-0.51
-1.21
-1.88
-2.41
-2.68
-2.66
-2.37
-1.90
-1.36
-0.87
-0.47
-0.18
-0.02
0.05
0.04
0.00
-0.04
-0.08
-0.13
-0.22
-0.36
-0.56
-0.77
-0.90
-0.86
-0.57
-0.01
0.79
1.69
2.54
3.19
3.56
3.66
3.52
3.22
2.84
2.47
2.17
2.00
1.90
1.77
1.46
0.86
0.01
-0.95
-1.80
-2.37
-2.57
-2.44
-2.08
-1.55
-0.93
-0.22
0.51
1.18
1.70
2.03
2.19
2.29
2.45
2.75
3.20
3.73
4.26
4.70
4.97
5.04
4.92
4.70
4.44
4.21
3.99
3.68
3.21
2.53
1.68
0.79
-0.02
-0.73
-1.41
-2.17
-3.13
-4.30
-5.59
-6.90
-8.14
-9.31
-10.48
-11.68
-12.86
-13.88
-14.57
-14.80
-14.58
-14.03
-13.32
-12.61
-11.93
-11.18
-10.24
-9.02
-7.55
-6.01
-4.62
-3.53
-2.77
-2.26
-1.86
-1.43
-0.96
-0.50
-0.14
0.09
0.22
0.38
0.68
1.22
1.99
2.90
3.80
4.51
4.85
4.68
3.94
2.70
1.15
-0.43
-1.77
-2.73
-3.38
-3.98
-4.90
-6.42
-8.65
-11.46
-14.54
-17.57
-20.31
-22.72
-24.89
-26.98
-29.15
-31.41
-33.67
-35.78
-37.60
-39.15
-40.68
-42.62
-45.43
-49.42
-54.41
-59.71
-64.05
-65.83
-63.42
-55.55
-41.73
-22.57
0.15
23.77
45.30
62.27
73.32
78.49
78.94
76.39
72.43
68.12
63.95
60.07
56.63
53.85
51.94
50.93
50.58
50.40
49.85
48.64
46.82
44.82
43.24
42.61
43.09
44.41
45.92
46.85
46.70
45.46
43.61
41.94
41.14
41.54
43.00
45.02
46.94
47.99
47.32
44.08
37.54
27.52
14.62
0.26
-13.69
-25.55
-34.37
-40.15
-43.59
-45.54
-46.57
-46.80
-46.11
-44.45
-42.06
-39.42
-36.99
-35.00
-33.31
-31.59
-29.51
-26.98
-24.21
-21.62
-19.60
-18.32
-17.70
-17.37
-16.94
-16.08
-14.74
-13.03
-11.25
-9.68
-8.51
-7.79
-7.43
-7.29
-7.18
-7.00
-6.70
-6.30
-5.88
-5.49
-5.17
-4.91
-4.70
-4.50
-4.32
-4.18
-4.10
-4.10
-4.15
-4.22
-4.26
-4.30
-4.37
-4.47
-4.60
-4.68
-4.58
-4.18
-3.41
-2.19
-0.49
1.71
4.32
7.14
9.86
12.10
13.63
14.37
14.54
14.47
14.47
14.76
15.30
15.99
16.66
17.25
17.77
18.27
18.78
19.29
19.80
20.36
21.08
22.03
23.16
24.13
24.32
23.03
19.76
14.49
7.81
0.79
-5.45
-10.05
-12.75
-13.85
-13.93
-13.60
-13.24
-12.95
-12.71
-12.51
-12.41
-12.53
-12.90
-13.41
-13.83
-13.97
-13.72
-13.16
-12.52
-12.05
-11.91
-12.15
-12.61
-13.09
-13.36
-13.25
-12.74
-11.93
-10.98
-10.06
-9.29
-8.66
-8.07
-7.40
-6.58
-5.63
-4.65
-3.74
-2.97
-2.29
-1.61
-0.85
0.03
0.92
1.69
2.24
2.50
2.54
2.43
2.26
2.10
1.93
1.78
1.66
1.60
1.65
1.79
1.98
2.12
2.13
1.97
1.67
1.32
0.98
0.72
0.54
0.42
0.32
0.25
0.22
0.26
0.35
0.42
0.40
0.23
-0.04
-0.32
-0.50
-0.50
-0.36
-0.22
-0.18
-0.32
-0.59
-0.86
-1.04
-1.06
-0.99
-0.91
-0.93
-1.07
-1.29
-1.51
-1.66
-1.72
-1.71
-1.68
-1.65
-1.63
-1.59
-1.46
-1.22
-0.86
-0.42
0.05
0.46
0.75
0.88
0.83
0.63
0.32
-0.05
-0.42
-0.74
-0.96
-1.07
-1.04
-0.87
-0.58
-0.18
0.23
0.56
0.72
0.66
0.42
0.07
-0.25
-0.41
-0.37
-0.14
0.17
0.43
0.55
0.51
0.38
0.25
0.18
0.17
0.17
0.07
-0.17
-0.51
-0.84
-1.04
-1.03
-0.85
-0.58
-0.36
-0.25
-0.26
-0.35
-0.45
-0.49
-0.45
-0.30
-0.07
0.21
0.46
0.63
0.67
0.58
0.41
0.25
0.16
0.15
0.19
0.23
0.23
0.17
0.06
-0.08
-0.23
-0.40
-0.55
-0.63
-0.61
-0.48
-0.26
-0.02
0.17
0.26
0.25
0.17
0.09
0.08
0.16
0.30
0.41
0.41
0.27
0.02
-0.22
-0.37
-0.37
-0.27
-0.13
-0.05
-0.03
-0.04
-0.02
0.11
0.33
0.64
0.97
1.28
1.54
1.71
1.77
1.69
1.50
1.21
0.85
0.43
-0.02
-0.47
-0.89
-1.21
-1.43
-1.57
-1.65
-1.71
-1.73
-1.67
-1.49
-1.14
-0.68
-0.16
0.32
0.71
1.01
1.22
1.34
1.33
1.17
0.87
0.50
0.16
-0.02
-0.03
0.09
0.19
0.18
0.01
-0.25
-0.49
-0.62
-0.65
-0.63
-0.63
-0.68
-0.72
-0.72
-0.63
-0.50
-0.40
-0.39
-0.48
-0.61
-0.68
-0.63
-0.42
-0.11
0.22
0.50
0.67
0.71
0.61
0.38
0.05
-0.32
-0.65
-0.87
-0.96
-0.91
-0.77
-0.59
-0.41
-0.25
-0.12
-0.01
0.08
0.10
0.05
-0.07
-0.20
-0.29
-0.27
-0.16
0.00
0.13
0.12
-0.05
-0.31
-0.55
-0.63
-0.49
-0.14
0.27
0.57
0.65
0.52
0.32
0.24
0.41
0.82
1.33
1.73
1.89
1.81
1.61
1.42
1.33
1.30
1.23
1.01
0.64
0.18
-0.22
-0.44
-0.47
-0.37
-0.26
-0.26
-0.39
-0.60
-0.82
-0.99
-1.06
-1.02
-0.90
-0.73
-0.53
-0.33
-0.16
-0.06
-0.05
-0.13
-0.27
-0.40
-0.45
-0.37
-0.14
0.18
0.51
0.73
0.78
0.65
0.39
0.06
-0.26
-0.56
-0.82
-1.04
-1.18
-1.23
-1.15
-0.96
-0.66
-0.31
0.10
0.52
0.92
1.19
1.25
1.04
0.61
0.12
-0.26
-0.38
-0.22
0.13
0.52
0.82
0.98
1.00
0.91
0.73
0.45
0.07
-0.34
-0.69
-0.90
-0.93
-0.87
-0.80
-0.85
-1.07
-1.42
-1.85
-2.27
-2.68
-3.10
-3.61
-4.28
-5.12
-6.03
-6.90
-7.59
-8.02
-8.20
-8.26
-8.40
-8.84
-9.72
-11.06
-12.70
-14.37
-15.83
-16.93
-17.76
-18.64
-20.00
-22.16
-25.18
-28.72
-32.17
-34.87
-36.44
-37.03
-37.28
-38.08
-40.18
-43.78
-48.41
-53.14
-57.00
-59.49
-60.78
-61.65
-63.11
-66.07
-71.06
-78.15
-86.74
-95.17
-100.57
-99.22
-87.72
-64.64
-31.65
6.45
43.19
72.80
92.11
101.30
102.98
100.45
96.16
91.15
85.57
79.54
73.75
69.27
66.92
66.64
67.42
67.76
66.33
62.67
57.30
51.57
46.89
44.22
43.62
44.32
45.11
44.93
43.33
40.67
37.87
35.99
35.72
37.14
39.64
42.26
44.12
44.78
44.42
43.72
43.59
44.74
47.37
51.14
55.27
58.97
61.72
63.53
64.83
66.29
68.46
71.63
75.80
80.56
84.91
87.08
84.67
75.25
57.48
32.03
1.88
-28.49
-54.62
-73.62
-84.90
-89.80
-90.48
-88.76
-85.59
-81.30
-76.15
-70.79
-66.11
-62.80
-60.90
-59.71
-58.20
-55.54
-51.44
-46.36
-41.17
-36.74
-33.60
-31.69
-30.54
-29.47
-27.92
-25.65
-22.79
-19.73
-16.88
-14.58
-12.92
-11.81
-11.04
-10.38
-9.65
-8.79
-7.82
-6.78
-5.77
-4.85
-4.05
-3.39
-2.85
-2.42
-2.10
-1.87
-1.69
-1.55
-1.39
-1.20
-1.00
-0.85
-0.80
-0.92
-1.20
-1.58
-1.93
-2.15
-2.18
-2.05
-1.87
-1.72
-1.65
-1.66
-1.69
-1.67
-1.60
-1.53
-1.49
-1.51
-1.58
-1.71
-1.87
-2.11
-2.41
-2.79
-3.17
-3.47
-3.62
-3.60
-3.46
-3.29
-3.20
-3.23
-3.38
-3.57
-3.71
-3.76
-3.69
-3.56
-3.42
-3.36
-3.39
-3.48
-3.56
-3.51
-3.27
-2.84
-2.27
-1.73
-1.36
-1.30
-1.55
-1.99
-2.43
-2.72
-2.80
-2.76
-2.77
-2.97
-3.46
-4.19
-5.07
-5.99
-6.86
-7.63
-8.32
-8.97
-9.63
-10.36
-11.20
-12.19
-13.32
-14.55
-15.84
-17.09
-18.24
-19.25
-20.17
-21.19
-22.59
-24.54
-26.96
-29.32
-30.80
-30.67
-28.68
-25.34
-21.78
-19.13
-17.98
-18.07
-18.54
-18.45
-17.26
-14.90
-11.55
-7.27
-1.93
4.54
11.89
19.40
26.14
31.42
35.13
37.66
39.60
41.27
42.58
43.15
42.66
41.09
38.69
35.83
32.83
29.85
26.92
24.07
21.40
19.03
17.13
15.71
14.72
13.97
13.28
12.53
11.72
10.95
10.37
10.07
10.02
10.14
10.30
10.44
10.55
10.69
10.95
11.37
11.93
12.58
13.24
13.82
14.29
14.70
15.17
15.90
17.02
18.61
20.57
22.70
24.78
26.63
28.26
29.78
31.41
33.30
35.38
37.31
38.39
37.73
34.49
28.27
19.43
9.08
-1.14
-9.67
-15.41
-18.03
-17.89
-15.75
-12.57
-9.34
-7.06
-6.56
-8.34
-12.29
-17.59
-22.94
-27.04
-29.08
-29.02
-27.55
-25.64
-24.20
-23.70
-24.15
-25.23
-26.51
-27.61
-28.24
-28.25
-27.61
-26.42
-24.82
-23.00
-21.12
-19.29
-17.57
-15.94
-14.35
-12.71
-10.96
-9.13
-7.33
-5.71
-4.43
-3.51
-2.83
-2.13
-1.10
0.48
2.60
4.99
7.22
8.87
9.70
9.72
9.16
8.34
7.55
6.94
6.52
6.19
5.85
5.42
4.88
4.25
3.58
2.89
2.23
1.67
1.27
1.11
1.26
1.67
2.22
2.75
3.10
3.23
3.25
3.37
3.76
4.46
5.34
6.10
6.45
6.18
5.26
3.78
1.90
-0.27
-2.66
-5.20
-7.79
-10.24
-12.32
-13.81
-14.58
-14.65
-14.20
-13.44
-12.60
-11.85
-11.30
-10.94
-10.68
-10.39
-9.95
-9.28
-8.36
-7.25
-5.99
-4.63
-3.19
-1.71
-0.29
0.95
1.92
2.58
2.97
3.20
3.32
3.35
3.25
2.98
2.56
2.12
1.79
1.69
1.86
2.22
2.62
2.91
3.02
2.95
2.77
2.57
2.39
2.23
2.06
1.86
1.65
1.52
1.53
1.74
2.15
2.73
3.43
4.18
4.92
5.55
6.02
6.24
6.22
5.95
5.46
4.75
3.80
2.63
1.30
-0.03
-1.14
-1.87
-2.16
-2.13
-2.02
-2.08
-2.49
-3.25
-4.25
-5.25
-6.05
-6.52
-6.67
-6.60
-6.46
-6.38
-6.43
-6.59
-6.81
-7.02
-7.19
-7.30
-7.37
-7.46
-7.64
-7.93
-8.29
-8.59
-8.63
-8.24
-7.32
-5.95
-4.28
-2.49
-0.68
1.26
3.52
6.32
9.74
13.62
17.60
21.15
23.72
24.82
24.15
21.69
17.74
12.88
7.88
3.43
0.01
-2.25
-3.51
-4.08
-4.23
-4.14
-3.86
-3.46
-3.03
-2.70
-2.58
-2.66
-2.85
-3.00
-3.01
-2.87
-2.65
-2.42
-2.21
-1.97
-1.65
-1.25
-0.85
-0.53
-0.37
-0.38
-0.50
-0.65
-0.82
-0.98
-1.12
-1.18
-1.09
-0.81
-0.37
0.10
0.39
0.40
0.13
-0.26
-0.53
-0.51
-0.21
0.20
0.47
0.45
0.17
-0.18
-0.36
-0.26
0.07
0.42
0.61
0.57
0.38
0.23
0.22
0.32
0.43
0.40
0.23
0.00
-0.14
-0.13
-0.00
0.13
0.15
0.03
-0.14
-0.28
-0.31
-0.29
-0.29
-0.39
-0.59
-0.81
-0.94
-0.90
-0.71
-0.42
-0.12
0.13
0.27
0.29
0.20
0.06
-0.07
-0.12
-0.10
-0.06
-0.09
-0.27
-0.55
-0.85
-1.04
-1.05
-0.92
-0.75
-0.65
-0.65
-0.66
-0.58
-0.32
0.09
0.51
0.79
0.78
0.50
0.06
-0.36
-0.59
-0.55
-0.31
0.03
0.34
0.52
0.57
0.51
0.38
0.21
0.03
-0.16
-0.33
-0.46
-0.50
-0.44
-0.32
-0.20
-0.16
-0.21
-0.30
-0.34
-0.25
-0.04
0.21
0.39
0.43
0.37
0.32
0.43
0.72
1.12
1.45
1.58
1.46
1.17
0.85
0.61
0.52
0.53
0.59
0.63
0.62
0.55
0.42
0.24
-0.00
-0.30
-0.63
-0.92
-1.11
-1.15
-1.02
-0.75
-0.37
0.03
0.41
0.70
0.85
0.82
0.56
0.12
-0.44
-0.99
-1.40
-1.59
-1.57
-1.41
-1.23
-1.08
-0.96
-0.86
-0.74
-0.59
-0.46
-0.38
-0.37
-0.46
-0.60
-0.75
-0.85
-0.86
-0.72
-0.44
-0.07
0.32
0.66
0.89
1.02
1.04
0.97
0.83
0.63
0.38
0.12
-0.10
-0.25
-0.30
-0.26
-0.15
0.02
0.20
0.35
0.42
0.39
0.29
0.19
0.16
0.22
0.34
0.47
0.55
0.61
0.71
0.85
1.03
1.16
1.15
0.96
0.62
0.20
-0.19
-0.49
-0.66
-0.69
-0.57
-0.31
0.04
0.35
0.49
0.42
0.16
-0.15
-0.35
-0.37
-0.25
-0.11
-0.08
-0.19
-0.38
-0.55
-0.61
-0.55
-0.43
-0.33
-0.25
-0.20
-0.12
0.01
0.18
0.33
0.43
0.46
0.42
0.33
0.21
0.10
0.07
0.16
0.41
0.76
1.05
1.14
0.92
0.43
-0.15
-0.59
-0.72
-0.53
-0.15
0.19
0.34
0.28
0.08
-0.12
-0.22
-0.21
-0.13
-0.05
0.03
0.09
0.18
0.29
0.38
0.40
0.32
0.14
-0.10
-0.33
-0.50
-0.59
-0.60
-0.56
-0.50
-0.40
-0.27
-0.11
0.05
0.15
0.17
0.12
0.00
-0.12
-0.19
-0.21
-0.17
-0.08
0.03
0.15
0.23
0.23
0.15
0.00
-0.13
-0.19
-0.12
0.06
0.25
0.36
0.34
0.18
-0.04
-0.22
-0.26
-0.11
0.19
0.55
0.87
1.03
0.97
0.69
0.23
-0.33
-0.89
-1.36
-1.66
-1.74
-1.63
-1.37
-1.05
-0.74
-0.51
-0.35
-0.26
-0.19
-0.10
0.01
0.16
0.32
0.44
0.51
0.50
0.44
0.36
0.30
0.30
0.34
0.40
0.42
0.37
0.25
0.06
-0.12
-0.24
-0.25
-0.14
0.06
0.29
0.47
0.52
0.44
0.27
0.11
0.05
0.12
0.27
0.41
0.46
0.38
0.21
0.03
-0.09
-0.14
-0.18
-0.26
-0.44
-0.68
-0.88
-0.92
-0.72
-0.30
0.20
0.63
0.86
0.85
0.64
0.35
0.10
-0.08
-0.18
-0.26
-0.33
-0.42
-0.48
-0.48
-0.39
-0.22
-0.02
0.14
0.18
0.10
-0.06
-0.21
-0.26
-0.15
0.09
0.37
0.58
0.66
0.60
0.44
0.27
0.11
-0.04
-0.20
-0.36
-0.48
-0.51
-0.41
-0.23
-0.03
0.09
0.11
0.06
0.00
0.03
0.14
0.30
0.42
0.42
0.26
-0.01
-0.26
-0.39
-0.34
-0.13
0.12
0.31
0.38
0.34
0.29
0.31
0.46
0.68
0.88
0.93
0.80
0.51
0.15
-0.15
-0.33
-0.36
-0.28
-0.17
-0.08
-0.05
-0.06
-0.07
-0.06
-0.04
-0.04
-0.10
-0.22
-0.39
-0.54
-0.59
-0.52
-0.32
-0.01
0.32
0.61
0.77
0.76
0.57
0.24
-0.15
-0.50
-0.73
-0.81
-0.73
-0.54
-0.29
-0.04
0.16
0.25
0.22
0.11
0.01
-0.01
0.07
0.21
0.35
0.41
0.37
0.27
0.16
0.08
0.05
0.07
0.13
0.23
0.34
0.40
0.34
0.13
-0.14
-0.35
-0.34
-0.09
0.28
0.58
0.63
0.41
0.07
-0.20
-0.24
-0.10
0.08
0.12
-0.05
-0.36
-0.67
-0.85
-0.87
-0.81
-0.75
-0.75
-0.80
-0.84
-0.82
-0.72
-0.56
-0.38
-0.17
0.07
0.37
0.70
0.98
1.10
0.96
0.55
-0.03
-0.61
-1.00
-1.09
-0.89
-0.50
-0.11
0.17
0.29
0.28
0.26
0.30
0.44
0.65
0.88
1.04
1.11
1.08
0.95
0.73
0.45
0.10
-0.29
-0.64
-0.87
-0.87
-0.61
-0.14
0.40
0.80
0.88
0.58
-0.03
-0.73
-1.29
-1.52
-1.39
-0.98
-0.48
-0.03
0.27
0.39
0.37
0.26
0.12
-0.02
-0.11
-0.13
-0.08
-0.02
0.00
-0.08
-0.29
-0.56
-0.76
-0.76
-0.55
-0.19
0.16
0.37
0.37
0.25
0.14
0.15
0.30
0.49
0.58
0.47
0.19
-0.17
-0.45
-0.57
-0.52
-0.34
-0.11
0.15
0.39
0.59
0.71
0.72
0.61
0.40
0.12
-0.17
-0.40
-0.54
-0.53
-0.36
-0.03
0.37
0.72
0.91
0.87
0.63
0.30
-0.00
-0.17
-0.22
-0.21
-0.19
-0.20
-0.21
-0.17
-0.05
0.14
0.36
0.56
0.70
0.79
0.82
0.78
0.67
0.49
0.30
0.13
0.07
0.11
0.21
0.31
0.34
0.30
0.23
0.20
0.20
0.18
0.09
-0.13
-0.41
-0.64
-0.70
-0.54
-0.23
0.07
0.23
0.14
-0.14
-0.51
-0.79
-0.91
-0.85
-0.70
-0.58
-0.58
-0.72
-0.91
-1.07
-1.09
-0.97
-0.74
-0.49
-0.30
-0.19
-0.16
-0.18
-0.20
-0.21
-0.16
-0.03
0.19
0.50
0.82
1.07
1.17
1.11
0.96
0.82
0.74
0.69
0.60
0.38
0.05
-0.32
-0.62
-0.77
-0.79
-0.75
-0.74
-0.81
-0.90
-0.94
-0.86
-0.63
-0.30
0.05
0.35
0.55
0.64
0.69
0.76
0.87
1.03
1.15
1.17
1.04
0.79
0.47
0.15
-0.14
-0.39
-0.61
-0.75
-0.78
-0.65
-0.37
-0.02
0.27
0.37
0.23
-0.13
-0.57
-0.92
-1.04
-0.87
-0.47
0.03
0.44
0.66
0.68
0.56
0.41
0.27
0.17
0.04
-0.12
-0.33
-0.54
-0.65
-0.62
-0.41
-0.09
0.26
0.52
0.61
0.55
0.40
0.29
0.27
0.34
0.45
0.51
0.49
0.40
0.30
0.25
0.27
0.31
0.33
0.27
0.11
-0.13
-0.38
-0.59
-0.67
-0.59
-0.38
-0.13
0.09
0.20
0.21
0.16
0.09
0.03
0.00
-0.00
0.01
0.04
0.08
0.13
0.18
0.23
0.28
0.36
0.45
0.51
0.48
0.35
0.16
-0.01
-0.10
-0.07
0.02
0.09
0.05
-0.12
-0.38
-0.61
-0.70
-0.59
-0.30
0.06
0.35
0.46
0.40
0.25
0.10
0.03
0.04
0.07
0.03
-0.07
-0.19
-0.22
-0.12
0.09
0.30
0.41
0.37
0.18
-0.10
-0.37
-0.56
-0.66
-0.67
-0.65
-0.63
-0.64
-0.67
-0.69
-0.66
-0.57
-0.45
-0.31
-0.17
-0.02
0.17
0.38
0.58
0.69
0.64
0.41
0.06
-0.30
-0.53
-0.57
-0.41
-0.12
0.19
0.43
0.56
0.56
0.46
0.30
0.14
0.01
-0.04
-0.01
0.09
0.20
0.28
0.25
0.13
-0.06
-0.24
-0.33
-0.29
-0.13
0.09
0.32
0.49
0.57
0.57
0.47
0.27
-0.04
-0.43
-0.84
-1.16
-1.31
-1.23
-0.97
-0.64
-0.39
-0.27
-0.26
-0.26
-0.17
0.02
0.23
0.37
0.35
0.23
0.11
0.12
0.29
0.57
0.82
0.96
0.95
0.88
0.82
0.81
0.77
0.59
0.22
-0.30
-0.77
-1.01
-0.93
-0.58
-0.18
0.05
-0.00
-0.31
-0.68
-0.91
-0.89
-0.62
-0.22
0.15
0.38
0.44
0.34
0.15
-0.03
-0.13
-0.09
0.07
0.28
0.41
0.38
0.18
-0.11
-0.36
-0.47
-0.40
-0.18
0.10
0.33
0.44
0.45
0.40
0.36
0.37
0.41
0.44
0.41
0.30
0.15
0.04
0.05
0.18
0.34
0.43
0.36
0.14
-0.14
-0.36
-0.40
-0.23
0.10
0.51
0.86
1.04
0.99
0.70
0.25
-0.25
-0.66
-0.87
-0.85
-0.65
-0.37
-0.15
-0.05
-0.09
-0.25
-0.48
-0.72
-0.92
-1.00
-0.91
-0.59
-0.09
0.45
0.87
1.02
0.87
0.50
0.10
-0.16
-0.15
0.07
0.35
0.50
0.41
0.08
-0.35
-0.69
-0.80
-0.64
-0.30
0.07
0.31
0.36
0.22
0.00
-0.20
-0.33
-0.41
-0.48
-0.57
-0.68
-0.72
-0.64
-0.41
-0.09
0.24
0.47
0.57
0.57
0.55
0.56
0.61
0.65
0.64
0.56
0.42
0.25
0.09
-0.07
-0.22
-0.35
-0.42
-0.42
-0.37
-0.35
-0.44
-0.64
-0.90
-1.04
-0.96
-0.63
-0.14
0.31
0.59
0.63
0.52
0.34
0.18
0.06
-0.06
-0.19
-0.27
-0.20
0.03
0.40
0.77
0.99
1.00
0.80
0.49
0.15
-0.16
-0.43
-0.65
-0.78
-0.76
-0.54
-0.15
0.30
0.70
0.91
0.90
0.68
0.32
-0.07
-0.41
-0.64
-0.72
-0.64
-0.45
-0.25
-0.13
-0.17
-0.34
-0.59
-0.79
-0.82
-0.64
-0.30
0.09
0.40
0.55
0.53
0.38
0.19
0.03
-0.05
-0.06
-0.01
0.07
0.17
0.30
0.43
0.52
0.52
0.41
0.22
0.03
-0.11
-0.15
-0.14
-0.13
-0.18
-0.25
-0.30
-0.27
-0.16
-0.01
0.10
0.14
0.13
0.13
0.20
0.34
0.52
0.65
0.66
0.54
0.30
0.01
-0.27
-0.49
-0.60
-0.59
-0.44
-0.22
0.01
0.18
0.23
0.19
0.13
0.12
0.21
0.38
0.55
0.64
0.62
0.48
0.29
0.12
-0.00
-0.06
-0.07
-0.03
0.06
0.17
0.29
0.35
0.32
0.20
0.02
-0.16
-0.27
-0.29
-0.24
-0.17
-0.15
-0.20
-0.30
-0.41
-0.45
-0.41
-0.30
-0.20
-0.17
-0.25
-0.42
-0.58
-0.65
-0.57
-0.38
-0.13
0.08
0.23
0.36
0.49
0.59
0.61
0.49
0.21
-0.14
-0.40
-0.47
-0.32
-0.05
0.19
0.31
0.29
0.19
0.08
0.01
-0.06
-0.15
-0.28
-0.41
-0.47
-0.41
-0.24
-0.02
0.20
0.34
0.42
0.45
0.47
0.49
0.49
0.42
0.25
-0.01
-0.31
-0.55
-0.69
-0.72
-0.66
-0.54
-0.38
-0.14
0.17
0.51
0.79
0.92
0.85
0.61
0.29
-0.03
-0.27
-0.45
-0.58
-0.65
-0.64
-0.51
-0.28
0.01
0.25
0.35
0.25
-0.02
-0.36
-0.66
-0.84
-0.86
-0.75
-0.55
-0.32
-0.07
0.16
0.33
0.42
0.39
0.22
-0.03
-0.29
-0.49
-0.57
-0.51
-0.34
-0.09
0.21
0.52
0.82
1.04
1.13
1.06
0.84
0.54
0.28
0.15
0.17
0.34
0.55
0.70
0.75
0.67
0.52
0.37
0.25
0.20
0.15
0.08
-0.06
-0.27
-0.50
-0.67
-0.72
-0.61
-0.34
0.03
0.42
0.72
0.87
0.79
0.50
0.03
-0.51
-1.00
-1.31
-1.40
-1.26
-0.95
-0.57
-0.17
0.21
0.51
0.71
0.78
0.68
0.46
0.16
-0.14
-0.34
-0.42
-0.35
-0.19
0.01
0.19
0.30
0.31
0.20
-0.02
-0.30
-0.58
-0.80
-0.88
-0.80
-0.59
-0.32
-0.11
-0.03
-0.11
-0.32
-0.57
-0.76
-0.81
-0.68
-0.38
0.03
0.45
0.76
0.88
0.78
0.52
0.23
0.00
-0.08
0.01
0.20
0.43
0.62
0.71
0.70
0.61
0.49
0.39
0.33
0.31
0.29
0.20
0.03
-0.24
-0.57
-0.88
-1.12
-1.21
-1.12
-0.88
-0.57
-0.27
-0.05
0.05
0.05
0.03
0.07
0.19
0.41
0.65
0.84
0.90
0.80
0.56
0.26
0.03
-0.04
0.09
0.36
0.68
0.93
1.06
1.04
0.89
0.65
0.33
-0.03
-0.41
-0.73
-0.94
-0.94
-0.70
-0.25
0.32
0.83
1.13
1.13
0.83
0.33
-0.19
-0.59
-0.78
-0.75
-0.53
-0.25
-0.01
0.10
0.03
-0.15
-0.37
-0.51
-0.51
-0.37
-0.13
0.13
0.33
0.44
0.43
0.31
0.08
-0.25
-0.58
-0.85
-0.94
-0.85
-0.60
-0.28
0.01
0.20
0.29
0.32
0.33
0.36
0.38
0.38
0.33
0.24
0.11
-0.04
-0.20
-0.37
-0.54
-0.66
-0.70
-0.60
-0.34
0.05
0.50
0.92
1.22
1.32
1.24
1.06
0.92
0.97
1.31
1.92
2.67
3.40
3.99
4.34
4.46
4.37
4.10
3.69
3.19
2.69
2.25
1.93
1.69
1.46
1.16
0.73
0.18
-0.39
-0.90
-1.27
-1.45
-1.43
-1.26
-1.01
-0.80
-0.74
-0.93
-1.36
-1.94
-2.48
-2.84
-2.92
-2.78
-2.53
-2.30
-2.20
-2.21
-2.29
-2.38
-2.50
-2.71
-3.07
-3.59
-4.18
-4.66
-4.87
-4.70
-4.17
-3.40
-2.56
-1.79
-1.16
-0.67
-0.29
0.02
0.29
0.55
0.83
1.17
1.57
2.02
2.44
2.70
2.73
2.46
1.96
1.34
0.76
0.32
0.06
-0.05
-0.11
-0.21
-0.37
-0.58
-0.80
-1.00
-1.16
-1.28
-1.39
-1.51
-1.68
-1.93
-2.29
-2.69
-3.04
-3.19
-3.05
-2.62
-2.01
-1.40
-0.92
-0.59
-0.35
-0.06
0.40
1.00
1.64
2.16
2.45
2.49
2.36
2.15
1.96
1.81
1.68
1.50
1.19
0.72
0.09
-0.68
-1.49
-2.20
-2.68
-2.79
-2.50
-1.90
-1.22
-0.69
-0.52
-0.73
-1.18
-1.64
-1.89
-1.79
-1.37
-0.78
-0.20
0.19
0.28
0.05
-0.44
-1.03
-1.57
-1.87
-1.82
-1.39
-0.65
0.27
1.18
1.91
2.33
2.40
2.22
1.95
1.80
1.88
2.16
2.55
2.86
2.98
2.85
2.52
2.08
1.61
1.18
0.85
0.68
0.67
0.82
1.07
1.35
1.58
1.70
1.73
1.70
1.69
1.73
1.84
2.00
2.17
2.27
2.28
2.22
2.12
2.03
1.97
1.93
1.87
1.75
1.56
1.30
0.97
0.55
0.06
-0.49
-1.05
-1.55
-1.95
-2.20
-2.30
-2.26
-2.08
-1.78
-1.38
-0.94
-0.50
-0.12
0.19
0.44
0.63
0.74
0.74
0.58
0.27
-0.17
-0.62
-0.97
-1.10
-0.93
-0.46
0.24
1.02
1.74
2.25
2.54
2.62
2.61
2.59
2.62
2.66
2.59
2.31
1.77
1.00
0.15
-0.63
-1.21
-1.56
-1.70
-1.71
-1.69
-1.67
-1.65
-1.56
-1.34
-0.94
-0.42
0.12
0.53
0.69
0.59
0.30
-0.06
-0.39
-0.68
-0.96
-1.28
-1.61
-1.87
-1.95
-1.77
-1.41
-0.99
-0.69
-0.59
-0.70
-0.92
-1.15
-1.28
-1.27
-1.09
-0.75
-0.31
0.20
0.65
0.94
0.98
0.73
0.28
-0.26
-0.72
-1.00
-1.07
-0.96
-0.72
-0.40
-0.07
0.23
0.44
0.50
0.37
0.08
-0.28
-0.62
-0.85
-0.93
-0.90
-0.83
-0.78
-0.80
-0.88
-0.98
-1.04
-1.01
-0.85
-0.60
-0.31
-0.08
0.04
0.03
-0.09
-0.24
-0.34
-0.35
-0.22
0.07
0.47
0.91
1.27
1.47
1.46
1.27
1.00
0.74
0.55
0.44
0.36
0.27
0.18
0.11
0.10
0.16
0.25
0.32
0.32
0.23
0.09
-0.06
-0.16
-0.19
-0.15
-0.09
-0.03
0.01
0.04
0.10
0.21
0.36
0.46
0.46
0.30
0.00
-0.33
-0.58
-0.64
-0.52
-0.30
-0.09
0.02
0.01
-0.08
-0.19
-0.30
-0.37
-0.41
-0.42
-0.39
-0.32
-0.23
-0.15
-0.13
-0.19
-0.30
-0.41
-0.48
-0.49
-0.45
-0.38
-0.30
-0.23
-0.14
-0.03
0.09
0.18
0.20
0.12
-0.03
-0.19
-0.32
-0.33
-0.21
-0.00
0.23
0.37
0.38
0.24
0.05
-0.10
-0.10
0.05
0.28
0.47
0.52
0.41
0.18
-0.07
-0.23
-0.23
-0.10
0.06
0.17
0.16
0.05
-0.07
-0.12
-0.03
0.15
0.33
0.42
0.36
0.18
-0.01
-0.14
-0.17
-0.13
-0.09
-0.09
-0.15
-0.22
-0.25
-0.21
-0.06
0.15
0.40
0.62
0.74
0.72
0.54
0.24
-0.06
-0.25
-0.24
-0.03
0.25
0.43
0.37
0.05
-0.39
-0.75
-0.84
-0.61
-0.17
0.29
0.61
0.70
0.60
0.42
0.29
0.26
0.31
0.37
0.38
0.26
0.04
-0.25
-0.53
-0.72
-0.76
-0.65
-0.40
-0.10
0.17
0.33
0.36
0.29
0.20
0.14
0.14
0.15
0.12
-0.00
-0.20
-0.43
-0.62
-0.75
-0.80
-0.79
-0.72
-0.59
-0.37
-0.09
0.19
0.38
0.41
0.27
0.04
-0.19
-0.35
-0.43
-0.47
-0.52
-0.59
-0.65
-0.63
-0.47
-0.17
0.21
0.56
0.80
0.88
0.83
0.72
0.63
0.58
0.57
0.52
0.38
0.12
-0.20
-0.47
-0.60
-0.54
-0.32
-0.03
0.25
0.44
0.54
0.57
0.56
0.53
0.48
0.40
0.29
0.17
0.08
0.03
0.04
0.10
0.20
0.29
0.37
0.40
0.38
0.29
0.13
-0.08
-0.29
-0.45
-0.50
-0.41
-0.21
0.03
0.22
0.31
0.27
0.12
-0.08
-0.26
-0.39
-0.44
-0.41
-0.36
-0.33
-0.35
-0.43
-0.53
-0.58
-0.52
-0.38
-0.22
-0.11
-0.08
-0.11
-0.12
-0.08
0.03
0.19
0.40
0.65
0.94
1.26
1.51
1.57
1.35
0.84
0.16
-0.51
-0.98
-1.15
-1.02
-0.69
-0.32
-0.04
0.07
-0.02
-0.25
-0.54
-0.79
-0.94
-0.98
-0.93
-0.84
-0.75
-0.68
-0.62
-0.54
-0.41
-0.20
0.06
0.33
0.55
0.66
0.67
0.60
0.50
0.38
0.23
0.06
-0.12
-0.24
-0.25
-0.13
0.11
0.38
0.61
0.74
0.79
0.77
0.69
0.51
0.24
-0.07
-0.34
-0.43
-0.28
0.07
0.51
0.88
1.08
1.06
0.91
0.72
0.60
0.57
0.57
0.50
0.27
-0.10
-0.52
-0.84
-0.93
-0.76
-0.40
-0.05
0.13
0.09
-0.11
-0.32
-0.39
-0.27
-0.05
0.17
0.26
0.21
0.04
-0.18
-0.39
-0.56
-0.67
-0.71
-0.66
-0.50
-0.24
0.05
0.31
0.45
0.45
0.34
0.16
-0.03
-0.18
-0.27
-0.32
-0.37
-0.44
-0.55
-0.62
-0.59
-0.42
-0.13
0.19
0.43
0.55
0.54
0.46
0.38
0.34
0.31
0.28
0.22
0.17
0.15
0.17
0.22
0.23
0.17
0.03
-0.13
-0.27
-0.35
-0.37
-0.36
-0.34
-0.29
-0.20
-0.06
0.09
0.19
0.19
0.11
-0.02
-0.12
-0.18
-0.21
-0.26
-0.37
-0.51
-0.64
-0.68
-0.62
-0.47
-0.29
-0.16
-0.07
-0.02
0.02
0.07
0.14
0.21
0.29
0.39
0.49
0.56
0.59
0.58
0.54
0.50
0.47
0.42
0.32
0.14
-0.07
-0.27
-0.37
-0.33
-0.17
0.02
0.17
0.22
0.16
0.02
-0.16
-0.32
-0.43
-0.46
-0.41
-0.30
-0.17
-0.07
-0.03
-0.06
-0.12
-0.17
-0.15
-0.02
0.18
0.41
0.57
0.62
0.55
0.41
0.27
0.18
0.17
0.23
0.31
0.37
0.42
0.46
0.48
0.45
0.34
0.15
-0.09
-0.31
-0.44
-0.44
-0.34
-0.17
-0.00
0.13
0.19
0.16
0.03
-0.15
-0.32
-0.41
-0.39
-0.31
-0.25
-0.28
-0.41
-0.57
-0.68
-0.65
-0.50
-0.28
-0.07
0.06
0.12
0.14
0.16
0.15
0.11
0.02
-0.09
-0.17
-0.17
-0.06
0.12
0.34
0.58
0.82
1.03
1.16
1.13
0.87
0.40
-0.20
-0.76
-1.14
-1.27
-1.21
-1.04
-0.84
-0.63
-0.37
-0.02
0.36
0.65
0.75
0.59
0.26
-0.11
-0.36
-0.39
-0.20
0.14
0.52
0.82
0.95
0.88
0.63
0.28
-0.07
-0.31
-0.40
-0.33
-0.17
0.02
0.18
0.28
0.34
0.35
0.35
0.32
0.25
0.11
-0.13
-0.43
-0.71
-0.84
-0.76
-0.46
-0.08
0.22
0.30
0.17
-0.07
-0.24
-0.25
-0.13
-0.00
0.02
-0.11
-0.30
-0.44
-0.45
-0.30
-0.06
0.18
0.35
0.44
0.45
0.41
0.34
0.24
0.12
-0.02
-0.19
-0.35
-0.48
-0.54
-0.52
-0.41
-0.27
-0.17
-0.13
-0.17
-0.23
-0.27
-0.26
-0.22
-0.19
-0.20
-0.22
-0.18
-0.04
0.20
0.45
0.62
0.62
0.46
0.24
0.06
0.01
0.09
0.22
0.31
0.28
0.17
0.06
0.02
0.08
0.21
0.34
0.39
0.34
0.21
0.02
-0.20
-0.40
-0.57
-0.64
-0.58
-0.36
-0.02
0.35
0.60
0.65
0.48
0.16
-0.15
-0.31
-0.28
-0.07
0.21
0.45
0.57
0.55
0.42
0.23
0.01
-0.18
-0.31
-0.36
-0.30
-0.17
0.01
0.14
0.18
0.07
-0.15
-0.41
-0.62
-0.70
-0.64
-0.47
-0.30
-0.21
-0.23
-0.33
-0.43
-0.43
-0.29
-0.02
0.32
0.67
0.98
1.19
1.29
1.25
1.08
0.81
0.49
0.19
-0.04
-0.17
-0.20
-0.14
-0.02
0.13
0.28
0.40
0.45
0.39
0.21
-0.08
-0.41
-0.69
-0.84
-0.82
-0.68
-0.52
-0.45
-0.51
-0.66
-0.79
-0.81
-0.66
-0.41
-0.14
0.04
0.11
0.08
0.02
-0.05
-0.11
-0.17
-0.23
-0.29
-0.33
-0.31
-0.22
-0.06
0.19
0.49
0.82
1.11
1.33
1.44
1.44
1.32
1.09
0.75
0.30
-0.20
-0.67
-1.01
-1.13
-1.03
-0.74
-0.37
-0.03
0.21
0.31
0.31
0.25
0.22
0.23
0.30
0.38
0.41
0.36
0.23
0.08
-0.01
0.00
0.10
0.20
0.20
0.07
-0.15
-0.34
-0.39
-0.28
-0.09
0.03
-0.06
-0.34
-0.68
-0.91
-0.91
-0.73
-0.49
-0.35
-0.38
-0.51
-0.59
-0.51
-0.27
0.04
0.27
0.35
0.31
0.23
0.22
0.32
0.48
0.60
0.61
0.48
0.27
0.06
-0.08
-0.11
-0.05
0.08
0.24
0.43
0.60
0.73
0.77
0.68
0.46
0.14
-0.21
-0.51
-0.69
-0.70
-0.55
-0.30
-0.02
0.19
0.26
0.20
0.04
-0.17
-0.38
-0.56
-0.69
-0.73
-0.66
-0.46
-0.17
0.12
0.34
0.43
0.40
0.29
0.17
0.10
0.09
0.12
0.18
0.24
0.29
0.31
0.30
0.24
0.13
-0.03
-0.19
-0.33
-0.43
-0.48
-0.48
-0.42
-0.27
-0.04
0.21
0.39
0.42
0.24
-0.12
-0.52
-0.82
-0.92
-0.80
-0.54
-0.25
0.02
0.28
0.54
0.81
1.05
1.15
1.05
0.73
0.28
-0.21
-0.62
-0.88
-0.96
-0.85
-0.57
-0.17
0.25
0.54
0.59
0.37
0.00
-0.36
-0.55
-0.52
-0.32
-0.06
0.15
0.27
0.33
0.37
0.40
0.41
0.35
0.25
0.16
0.13
0.17
0.22
0.20
0.04
-0.20
-0.44
-0.55
-0.46
-0.22
0.07
0.27
0.33
0.24
0.11
0.04
0.09
0.27
0.49
0.67
0.72
0.64
0.44
0.21
0.03
-0.04
-0.00
0.08
0.13
0.08
-0.08
-0.30
-0.52
-0.67
-0.74
-0.76
-0.77
-0.80
-0.84
-0.84
-0.75
-0.51
-0.16
0.25
0.63
0.91
1.03
0.96
0.73
0.38
-0.02
-0.39
-0.65
-0.80
-0.83
-0.78
-0.69
-0.57
-0.42
-0.23
-0.00
0.23
0.43
0.57
0.66
0.70
0.70
0.63
0.49
0.24
-0.08
-0.41
-0.66
-0.76
-0.66
-0.41
-0.07
0.27
0.54
0.70
0.71
0.61
0.44
0.26
0.11
0.02
-0.01
0.01
0.08
0.18
0.28
0.36
0.37
0.28
0.08
-0.16
-0.36
-0.41
-0.30
-0.11
0.06
0.11
0.02
-0.14
-0.31
-0.46
-0.58
-0.68
-0.75
-0.76
-0.65
-0.42
-0.10
0.20
0.41
0.53
0.56
0.56
0.55
0.51
0.42
0.28
0.11
-0.02
-0.08
-0.05
0.04
0.17
0.29
0.36
0.32
0.17
-0.07
-0.31
-0.45
-0.40
-0.16
0.19
0.55
0.78
0.81
0.66
0.41
0.15
-0.01
-0.06
-0.03
0.00
-0.05
-0.19
-0.37
-0.47
-0.42
-0.20
0.10
0.35
0.45
0.41
0.30
0.21
0.17
0.16
0.11
-0.01
-0.13
-0.19
-0.13
-0.00
0.07
-0.05
-0.42
-0.93
-1.36
-1.52
-1.30
-0.80
-0.23
0.20
0.36
0.27
0.07
-0.12
-0.20
-0.16
-0.04
0.11
0.25
0.34
0.37
0.34
0.25
0.14
0.04
0.00
0.00
0.00
-0.03
-0.11
-0.19
-0.22
-0.15
-0.03
0.09
0.15
0.14
0.10
0.10
0.16
0.25
0.33
0.33
0.26
0.13
-0.00
-0.10
-0.13
-0.07
0.07
0.26
0.46
0.60
0.64
0.58
0.43
0.22
-0.01
-0.26
-0.49
-0.64
-0.67
-0.53
-0.29
-0.06
0.04
-0.05
-0.29
-0.55
-0.69
-0.65
-0.47
-0.25
-0.09
-0.03
-0.02
-0.00
0.04
0.08
0.08
0.02
-0.05
-0.08
-0.03
0.05
0.07
-0.01
-0.17
-0.31
-0.32
-0.15
0.10
0.32
0.41
0.35
0.24
0.20
0.28
0.44
0.60
0.67
0.62
0.50
0.35
0.22
0.10
-0.04
-0.22
-0.45
-0.69
-0.87
-0.91
-0.78
-0.50
-0.15
0.14
0.28
0.25
0.12
-0.02
-0.07
0.03
0.22
0.44
0.60
0.67
0.64
0.56
0.47
0.37
0.27
0.15
-0.00
-0.16
-0.26
-0.25
-0.11
0.12
0.38
0.55
0.56
0.39
0.10
-0.21
-0.45
-0.55
-0.51
-0.37
-0.20
-0.07
-0.02
-0.06
-0.17
-0.32
-0.47
-0.59
-0.65
-0.65
-0.59
-0.51
-0.43
-0.36
-0.27
-0.15
0.02
0.25
0.49
0.68
0.81
0.84
0.78
0.63
0.41
0.16
-0.09
-0.26
-0.33
-0.27
-0.15
-0.03
0.04
0.06
0.09
0.15
0.28
0.41
0.48
0.46
0.35
0.22
0.14
0.11
0.11
0.10
0.09
0.12
0.21
0.36
0.49
0.50
0.36
0.13
-0.05
-0.08
0.07
0.29
0.44
0.44
0.27
0.02
-0.21
-0.35
-0.41
-0.42
-0.41
-0.37
-0.28
-0.13
0.06
0.19
0.21
0.10
-0.11
-0.34
-0.49
-0.54
-0.49
-0.39
-0.28
-0.19
-0.10
0.02
0.18
0.34
0.43
0.40
0.24
-0.01
-0.28
-0.48
-0.59
-0.61
-0.57
-0.53
-0.49
-0.45
-0.40
-0.32
-0.23
-0.17
-0.15
-0.16
-0.19
-0.20
-0.19
-0.16
-0.11
-0.06
-0.03
-0.03
-0.06
-0.11
-0.13
-0.09
0.01
0.17
0.31
0.37
0.32
0.17
-0.01
-0.16
-0.27
-0.35
-0.42
-0.48
-0.47
-0.37
-0.16
0.14
0.44
0.66
0.76
0.74
0.67
0.60
0.60
0.67
0.80
0.94
1.00
0.94
0.73
0.38
-0.03
-0.43
-0.77
-0.99
-1.10
-1.09
-1.00
-0.86
-0.70
-0.60
-0.55
-0.55
-0.55
-0.47
-0.28
0.01
0.32
0.56
0.63
0.54
0.32
0.07
-0.13
-0.24
-0.22
-0.11
0.06
0.25
0.42
0.52
0.52
0.42
0.26
0.09
-0.03
-0.09
-0.08
-0.05
-0.02
0.01
0.02
0.03
0.02
-0.03
-0.11
-0.18
-0.21
-0.17
-0.06
0.06
0.11
0.07
-0.05
-0.17
-0.20
-0.09
0.14
0.41
0.62
0.73
0.72
0.62
0.49
0.32
0.11
-0.14
-0.38
-0.55
-0.54
-0.35
-0.03
0.30
0.53
0.61
0.61
0.60
0.66
0.80
0.91
0.91
0.75
0.48
0.19
-0.02
-0.13
-0.18
-0.26
-0.40
-0.60
-0.78
-0.88
-0.86
-0.78
-0.69
-0.65
-0.64
-0.61
-0.50
-0.31
-0.11
0.03
0.01
-0.15
-0.35
-0.49
-0.46
-0.26
0.03
0.29
0.41
0.34
0.12
-0.14
-0.30
-0.29
-0.12
0.10
0.26
0.27
0.16
0.05
0.07
0.22
0.46
0.62
0.61
0.42
0.15
-0.07
-0.15
-0.14
-0.12
-0.19
-0.37
-0.60
-0.77
-0.79
-0.65
-0.38
-0.10
0.14
0.30
0.37
0.38
0.38
0.35
0.32
0.26
0.22
0.20
0.21
0.23
0.21
0.10
-0.11
-0.33
-0.48
-0.46
-0.28
-0.01
0.21
0.25
0.09
-0.22
-0.53
-0.72
-0.70
-0.48
-0.14
0.24
0.56
0.80
0.94
1.01
1.03
0.98
0.87
0.69
0.45
0.18
-0.10
-0.36
-0.57
-0.68
-0.67
-0.50
-0.20
0.20
0.59
0.88
0.97
0.80
0.39
-0.16
-0.71
-1.11
-1.27
-1.19
-0.96
-0.67
-0.45
-0.33
-0.27
-0.24
-0.17
-0.06
0.04
0.06
-0.00
-0.12
-0.23
-0.27
-0.20
-0.05
0.10
0.23
0.29
0.32
0.36
0.42
0.48
0.51
0.47
0.37
0.23
0.08
-0.06
-0.16
-0.24
-0.28
-0.25
-0.14
0.05
0.28
0.48
0.60
0.64
0.60
0.53
0.44
0.34
0.21
0.08
-0.04
-0.14
-0.16
-0.12
-0.01
0.16
0.34
0.52
0.65
0.70
0.62
0.39
0.03
-0.42
-0.86
-1.17
-1.28
-1.18
-0.94
-0.68
-0.50
-0.46
-0.48
-0.47
-0.34
-0.08
0.23
0.47
0.56
0.50
0.35
0.20
0.10
0.07
0.07
0.06
0.01
-0.06
-0.13
-0.13
-0.04
0.13
0.32
0.44
0.40
0.18
-0.17
-0.51
-0.68
-0.62
-0.37
-0.04
0.23
0.38
0.40
0.36
0.34
0.36
0.37
0.36
0.31
0.26
0.23
0.21
0.15
0.01
-0.18
-0.37
-0.44
-0.34
-0.10
0.19
0.40
0.45
0.34
0.13
-0.12
-0.35
-0.51
-0.62
-0.65
-0.61
-0.52
-0.40
-0.30
-0.24
-0.25
-0.29
-0.33
-0.35
-0.33
-0.29
-0.25
-0.22
-0.21
-0.18
-0.11
0.00
0.15
0.32
0.47
0.58
0.63
0.61
0.50
0.32
0.14
0.05
0.09
0.24
0.42
0.50
0.43
0.25
0.05
-0.08
-0.12
-0.13
-0.19
-0.30
-0.39
-0.37
-0.15
0.23
0.62
0.87
0.87
0.64
0.28
-0.08
-0.33
-0.45
-0.44
-0.34
-0.18
0.01
0.20
0.36
0.46
0.46
0.34
0.13
-0.12
-0.36
-0.52
-0.58
-0.56
-0.50
-0.45
-0.41
-0.35
-0.22
-0.03
0.19
0.33
0.36
0.27
0.16
0.13
0.23
0.45
0.66
0.76
0.68
0.46
0.20
-0.01
-0.11
-0.14
-0.12
-0.09
-0.04
0.03
0.09
0.09
0.00
-0.16
-0.32
-0.42
-0.47
-0.48
-0.53
-0.59
-0.59
-0.43
-0.07
0.40
0.76
0.84
0.59
0.13
-0.32
-0.57
-0.56
-0.39
-0.20
-0.12
-0.13
-0.15
-0.09
0.06
0.25
0.36
0.32
0.14
-0.13
-0.39
-0.57
-0.65
-0.66
-0.60
-0.46
-0.20
0.18
0.66
1.12
1.42
1.45
1.19
0.74
0.26
-0.11
-0.31
-0.35
-0.27
-0.16
-0.04
0.07
0.14
0.13
-0.02
-0.33
-0.76
-1.19
-1.50
-1.58
-1.38
-0.99
-0.52
-0.12
0.10
0.10
-0.05
-0.27
-0.43
-0.46
-0.31
-0.04
0.29
0.58
0.78
0.88
0.89
0.87
0.84
0.81
0.81
0.82
0.85
0.90
0.97
1.05
1.09
1.07
0.95
0.72
0.38
-0.00
-0.39
-0.70
-0.90
-0.96
-0.90
-0.74
-0.56
-0.44
-0.44
-0.56
-0.75
-0.91
-0.96
-0.86
-0.65
-0.39
-0.16
0.02
0.14
0.24
0.32
0.36
0.34
0.23
0.06
-0.15
-0.32
-0.41
-0.40
-0.32
-0.23
-0.15
-0.13
-0.15
-0.15
-0.11
-0.03
0.06
0.10
0.09
0.04
0.02
0.07
0.18
0.31
0.40
0.43
0.39
0.35
0.35
0.41
0.51
0.59
0.60
0.52
0.38
0.20
0.04
-0.12
-0.27
-0.43
-0.57
-0.67
-0.69
-0.61
-0.46
-0.30
-0.16
-0.05
0.02
0.11
0.21
0.30
0.35
0.31
0.17
-0.01
-0.16
-0.20
-0.09
0.13
0.42
0.68
0.86
0.91
0.84
0.71
0.55
0.41
0.31
0.25
0.24
0.26
0.32
0.42
0.52
0.61
0.64
0.59
0.45
0.25
0.05
-0.07
-0.10
-0.04
0.05
0.08
0.01
-0.16
-0.36
-0.51
-0.56
-0.53
-0.46
-0.44
-0.47
-0.50
-0.47
-0.33
-0.12
0.06
0.10
0.01
-0.15
-0.23
-0.14
0.11
0.39
0.57
0.51
0.23
-0.19
-0.58
-0.81
-0.83
-0.66
-0.39
-0.13
0.02
0.01
-0.17
-0.46
-0.74
-0.94
-0.99
-0.87
-0.65
-0.39
-0.17
-0.04
-0.03
-0.09
-0.18
-0.23
-0.16
0.04
0.33
0.66
0.92
1.03
0.93
0.64
0.24
-0.14
-0.38
-0.43
-0.28
-0.03
0.19
0.28
0.22
0.06
-0.12
-0.24
-0.29
-0.29
-0.27
-0.25
-0.19
-0.08
0.11
0.31
0.43
0.40
0.17
-0.23
-0.71
-1.13
-1.37
-1.33
-1.00
-0.48
0.07
0.49
0.67
0.55
0.22
-0.20
-0.56
-0.75
-0.71
-0.47
-0.12
0.21
0.43
0.50
0.46
0.40
0.40
0.45
0.50
0.45
0.28
0.03
-0.18
-0.28
-0.23
-0.10
-0.00
0.01
-0.08
-0.19
-0.24
-0.17
0.01
0.23
0.41
0.46
0.35
0.08
-0.24
-0.51
-0.62
-0.55
-0.37
-0.18
-0.06
-0.05
-0.07
-0.04
0.10
0.33
0.55
0.67
0.66
0.55
0.44
0.39
0.45
0.55
0.62
0.61
0.51
0.37
0.27
0.26
0.35
0.51
0.66
0.73
0.66
0.43
0.10
-0.27
-0.58
-0.76
-0.78
-0.64
-0.39
-0.09
0.21
0.43
0.54
0.53
0.42
0.24
0.03
-0.15
-0.25
-0.25
-0.12
0.07
0.28
0.41
0.40
0.26
0.07
-0.09
-0.16
-0.16
-0.13
-0.15
-0.23
-0.34
-0.43
-0.47
-0.47
-0.48
-0.51
-0.56
-0.56
-0.48
-0.32
-0.11
0.03
0.06
-0.04
-0.19
-0.32
-0.34
-0.24
-0.07
0.11
0.26
0.37
0.44
0.46
0.42
0.31
0.14
-0.02
-0.11
-0.07
0.09
0.31
0.49
0.59
0.61
0.59
0.59
0.60
0.58
0.50
0.32
0.11
-0.10
-0.24
-0.30
-0.31
-0.29
-0.27
-0.25
-0.25
-0.28
-0.37
-0.52
-0.67
-0.77
-0.74
-0.61
-0.44
-0.32
-0.25
-0.21
-0.11
0.07
0.29
0.45
0.45
0.28
0.02
-0.22
-0.34
-0.35
-0.30
-0.28
-0.29
-0.32
-0.33
-0.30
-0.23
-0.14
-0.02
0.14
0.35
0.60
0.83
1.02
1.12
1.12
1.03
0.86
0.63
0.39
0.20
0.11
0.13
0.22
0.27
0.20
-0.01
-0.30
-0.56
-0.65
-0.53
-0.21
0.20
0.58
0.81
0.87
0.79
0.64
0.51
0.39
0.25
0.00
-0.37
-0.83
-1.26
-1.54
-1.57
-1.38
-1.05
-0.71
-0.45
-0.33
-0.35
-0.46
-0.59
-0.64
-0.53
-0.28
0.04
0.32
0.45
0.41
0.28
0.14
0.08
0.07
0.03
-0.10
-0.35
-0.63
-0.83
-0.84
-0.63
-0.26
0.19
0.61
0.91
1.02
0.94
0.71
0.39
0.06
-0.22
-0.42
-0.55
-0.64
-0.69
-0.70
-0.68
-0.62
-0.56
-0.49
-0.40
-0.26
-0.04
0.24
0.53
0.78
0.97
1.12
1.28
1.49
1.75
2.01
2.18
2.13
1.73
0.90
-0.33
-1.81
-3.29
-4.50
-5.29
-5.67
-5.86
-6.13
-6.72
-7.71
-8.97
-10.27
-11.38
-12.15
-12.67
-13.19
-14.04
-15.52
-17.71
-20.41
-23.17
-25.43
-26.76
-27.08
-26.77
-26.56
-27.19
-29.10
-32.19
-35.77
-38.94
-40.94
-41.57
-41.29
-41.05
-41.90
-44.62
-49.51
-56.24
-63.65
-69.75
-71.79
-66.93
-53.25
-30.94
-2.70
26.74
52.19
69.77
78.22
78.88
74.62
68.38
62.00
56.10
50.54
45.19
40.32
36.43
33.76
32.01
30.32
27.72
23.67
18.31
12.49
7.29
3.59
1.61
0.85
0.35
-0.87
-3.40
-7.14
-11.42
-15.21
-17.52
-17.72
-15.66
-11.70
-6.56
-1.03
4.17
8.64
12.29
15.32
18.01
20.56
22.98
25.03
26.45
27.03
26.85
26.15
25.31
24.62
24.17
23.84
23.39
22.64
21.56
20.33
19.17
18.24
17.55
16.93
16.19
15.20
13.98
12.68
11.47
10.50
9.81
9.41
9.24
9.27
9.40
9.50
9.41
9.00
8.21
7.07
5.63
3.92
1.94
-0.34
-2.85
-5.35
-7.51
-8.96
-9.49
-9.13
-8.12
-6.84
-5.62
-4.63
-3.88
-3.22
-2.53
-1.71
-0.84
-0.06
0.46
0.65
0.52
0.20
-0.19
-0.57
-1.01
-1.58
-2.34
-3.23
-4.06
-4.63
-4.82
-4.64
-4.22
-3.72
-3.21
-2.67
-1.98
-1.06
0.06
1.25
2.33
3.14
3.63
3.89
4.11
4.49
5.16
6.16
7.40
8.69
9.79
10.47
10.51
9.76
8.21
6.03
3.52
1.07
-0.98
-2.47
-3.45
-4.12
-4.67
-5.21
-5.72
-6.05
-6.10
-5.85
-5.37
-4.83
-4.38
-4.14
-4.17
-4.47
-4.97
-5.57
-6.11
-6.48
-6.58
-6.45
-6.16
-5.79
-5.38
-4.89
-4.27
-3.49
-2.60
-1.73
-1.02
-0.57
-0.40
-0.49
-0.76
-1.11
-1.43
-1.65
-1.71
-1.63
-1.48
-1.37
-1.39
-1.55
-1.79
-2.03
-2.18
-2.22
-2.14
-1.96
-1.66
-1.24
-0.69
-0.08
0.49
0.90
1.08
1.04
0.85
0.58
0.27
-0.09
-0.52
-1.01
-1.53
-1.98
-2.29
-2.41
-2.36
-2.20
-2.02
-1.82
-1.62
-1.38
-1.08
-0.74
-0.40
-0.09
0.13
0.28
0.37
0.45
0.53
0.65
0.83
1.09
1.42
1.79
2.10
2.22
2.04
1.54
0.77
-0.11
-0.91
-1.46
-1.68
-1.59
-1.30
-0.91
-0.53
-0.20
0.09
0.29
0.36
0.22
-0.17
-0.77
-1.43
-1.97
-2.23
-2.20
-1.95
-1.61
-1.30
-1.01
-0.70
-0.34
0.02
0.24
0.15
-0.32
-1.08
-1.87
-2.41
-2.52
-2.22
-1.72
-1.27
-1.01
-0.93
-0.88
-0.71
-0.40
-0.07
0.12
0.06
-0.20
-0.48
-0.56
-0.37
0.06
0.56
0.94
1.13
1.13
1.06
0.99
0.99
1.01
0.98
0.86
0.66
0.46
0.35
0.39
0.54
0.69
0.70
0.49
0.11
-0.32
-0.61
-0.70
-0.65
-0.62
-0.80
-1.21
-1.72
-2.04
-1.96
-1.40
-0.49
0.48
1.22
1.58
1.53
1.21
0.82
0.53
0.49
0.72
1.17
1.72
2.20
2.47
2.45
2.14
1.62
1.01
0.40
-0.12
-0.46
-0.58
-0.42
-0.03
0.47
0.88
1.02
0.80
0.26
-0.48
-1.21
-1.78
-2.13
-2.27
-2.25
-2.15
-2.02
-1.87
-1.71
-1.55
-1.34
-1.08
-0.77
-0.44
-0.16
0.01
0.06
0.03
0.01
0.09
0.27
0.50
0.70
0.81
0.84
0.87
0.98
1.22
1.55
1.86
2.05
2.07
1.91
1.60
1.22
0.85
0.56
0.39
0.31
0.24
0.08
-0.25
-0.77
-1.40
-2.01
-2.46
-2.62
-2.47
-2.08
-1.56
-1.04
-0.65
-0.48
-0.56
-0.86
-1.31
-1.77
-2.08
-2.12
-1.82
-1.23
-0.52
0.10
0.43
0.40
0.08
-0.33
-0.62
-0.70
-0.60
-0.46
-0.43
-0.53
-0.68
-0.75
-0.63
-0.33
0.03
0.31
0.36
0.18
-0.16
-0.50
-0.71
-0.73
-0.58
-0.36
-0.16
-0.07
-0.09
-0.20
-0.32
-0.40
-0.40
-0.31
-0.16
-0.00
0.07
0.01
-0.24
-0.65
-1.12
-1.51
-1.72
-1.70
-1.52
-1.27
-1.08
-0.97
-0.93
-0.89
-0.81
-0.69
-0.55
-0.38
-0.18
0.08
0.40
0.75
1.07
1.32
1.46
1.52
1.55
1.58
1.64
1.74
1.84
1.92
1.96
1.92
1.77
1.54
1.27
1.05
0.95
1.00
1.17
1.38
1.55
1.61
1.55
1.40
1.20
0.98
0.80
0.69
0.69
0.78
0.87
0.84
0.59
0.11
-0.46
-0.94
-1.13
-1.01
-0.68
-0.34
-0.14
-0.14
-0.26
-0.38
-0.42
-0.39
-0.36
-0.40
-0.52
-0.64
-0.67
-0.58
-0.39
-0.17
-0.00
0.08
0.10
0.11
0.13
0.19
0.24
0.25
0.18
0.02
-0.16
-0.28
-0.29
-0.17
-0.01
0.11
0.11
-0.04
-0.27
-0.48
-0.58
-0.51
-0.32
-0.09
0.11
0.23
0.30
0.32
0.31
0.27
0.19
0.08
-0.03
-0.08
-0.08
-0.05
-0.06
-0.18
-0.44
-0.77
-1.09
-1.32
-1.44
-1.50
-1.54
-1.58
-1.57
-1.45
-1.21
-0.90
-0.63
-0.50
-0.53
-0.67
-0.80
-0.84
-0.77
-0.64
-0.52
-0.42
-0.31
-0.13
0.13
0.42
0.60
0.54
0.23
-0.23
-0.64
-0.80
-0.62
-0.17
0.35
0.75
0.91
0.82
0.60
0.37
0.20
0.09
0.02
-0.05
-0.09
-0.08
0.01
0.16
0.34
0.50
0.61
0.65
0.65
0.66
0.70
0.79
0.89
0.93
0.84
0.60
0.21
-0.23
-0.62
-0.89
-1.02
-1.05
-1.05
-1.08
-1.14
-1.17
-1.13
-0.97
-0.71
-0.42
-0.17
-0.01
0.01
-0.06
-0.17
-0.26
-0.27
-0.15
0.06
0.33
0.57
0.72
0.75
0.66
0.52
0.38
0.29
0.25
0.24
0.26
0.27
0.25
0.21
0.11
-0.03
-0.18
-0.31
-0.35
-0.29
-0.14
0.06
0.24
0.39
0.51
0.61
0.74
0.89
1.04
1.13
1.12
0.96
0.69
0.37
0.11
-0.03
-0.03
0.06
0.17
0.24
0.26
0.25
0.22
0.18
0.07
-0.13
-0.41
-0.68
-0.88
-0.96
-0.93
-0.86
-0.83
-0.89
-0.99
-1.06
-1.02
-0.84
-0.56
-0.28
-0.11
-0.07
-0.13
-0.17
-0.10
0.09
0.31
0.41
0.30
-0.03
-0.42
-0.71
-0.73
-0.46
-0.04
0.37
0.61
0.62
0.46
0.24
0.04
-0.08
-0.12
-0.10
-0.03
0.10
0.28
0.47
0.61
0.63
0.49
0.24
-0.04
-0.21
-0.19
0.04
0.39
0.73
0.97
1.05
1.02
0.94
0.89
0.87
0.86
0.79
0.63
0.37
0.07
-0.21
-0.41
-0.48
-0.40
-0.18
0.13
0.46
0.69
0.70
0.43
-0.09
-0.71
-1.21
-1.42
-1.30
-0.94
-0.52
-0.23
-0.15
-0.24
-0.37
-0.39
-0.29
-0.11
0.05
0.10
0.04
-0.09
-0.24
-0.40
-0.57
-0.79
-1.02
-1.21
-1.27
-1.16
-0.88
-0.57
-0.36
-0.36
-0.59
-0.91
-1.14
-1.16
-0.90
-0.48
-0.03
0.28
0.37
0.22
-0.08
-0.44
-0.75
-0.94
-0.95
-0.80
-0.53
-0.25
-0.05
0.01
-0.04
-0.12
-0.13
0.01
0.32
0.71
1.07
1.26
1.22
0.95
0.54
0.12
-0.22
-0.42
-0.49
-0.41
-0.21
0.09
0.45
0.75
0.88
0.73
0.34
-0.15
-0.56
-0.73
-0.68
-0.50
-0.33
-0.25
-0.21
-0.09
0.19
0.64
1.11
1.43
1.48
1.25
0.83
0.35
-0.08
-0.38
-0.56
-0.60
-0.52
-0.33
-0.06
0.22
0.44
0.52
0.41
0.16
-0.17
-0.48
-0.67
-0.68
-0.49
-0.16
0.22
0.54
0.70
0.69
0.53
0.31
0.08
-0.10
-0.27
-0.43
-0.61
-0.78
-0.88
-0.87
-0.75
-0.56
-0.37
-0.23
-0.16
-0.14
-0.13
-0.09
-0.01
0.06
0.10
0.09
0.05
0.04
0.11
0.27
0.49
0.66
0.69
0.57
0.34
0.12
0.00
0.04
0.22
0.45
0.63
0.69
0.59
0.39
0.14
-0.07
-0.21
-0.27
-0.28
-0.25
-0.19
-0.10
0.00
0.10
0.13
0.08
-0.07
-0.28
-0.48
-0.62
-0.67
-0.65
-0.58
-0.50
-0.43
-0.37
-0.32
-0.28
-0.24
-0.19
-0.12
-0.05
0.02
0.07
0.09
0.05
-0.02
-0.08
-0.08
0.01
0.18
0.37
0.49
0.49
0.37
0.18
-0.00
-0.12
-0.18
-0.18
-0.16
-0.12
-0.08
-0.03
0.01
0.01
-0.06
-0.19
-0.32
-0.40
-0.39
-0.29
-0.12
0.08
0.28
0.45
0.56
0.59
0.54
0.44
0.35
0.31
0.35
0.41
0.44
0.37
0.21
-0.01
-0.21
-0.37
-0.49
-0.60
-0.71
-0.80
-0.80
-0.64
-0.34
0.01
0.27
0.34
0.20
-0.04
-0.23
-0.25
-0.08
0.19
0.43
0.52
0.42
0.22
0.04
-0.03
0.08
0.30
0.58
0.82
1.01
1.15
1.23
1.22
1.09
0.85
0.55
0.30
0.16
0.13
0.15
0.10
-0.06
-0.31
-0.52
-0.56
-0.41
-0.12
0.20
0.41
0.47
0.39
0.23
0.04
-0.12
-0.21
-0.17
-0.02
0.19
0.37
0.44
0.36
0.16
-0.08
-0.27
-0.38
-0.43
-0.45
-0.46
-0.43
-0.31
-0.11
0.14
0.34
0.40
0.26
-0.02
-0.33
-0.55
-0.56
-0.35
0.04
0.50
0.89
1.10
1.08
0.84
0.44
-0.03
-0.51
-0.91
-1.18
-1.28
-1.20
-0.99
-0.73
-0.53
-0.45
-0.49
-0.57
-0.58
-0.47
-0.22
0.07
0.27
0.28
0.10
-0.23
-0.60
-0.89
-1.06
-1.10
-1.02
-0.87
-0.70
-0.54
-0.41
-0.31
-0.24
-0.19
-0.14
-0.05
0.07
0.20
0.27
0.26
0.14
-0.06
-0.29
-0.50
-0.68
-0.79
-0.87
-0.92
-0.95
-0.94
-0.88
-0.77
-0.63
-0.45
-0.27
-0.08
0.09
0.24
0.35
0.38
0.32
0.16
-0.05
-0.27
-0.43
-0.46
-0.33
-0.05
0.31
0.66
0.86
0.83
0.60
0.24
-0.11
-0.32
-0.36
-0.26
-0.10
0.08
0.26
0.49
0.78
1.11
1.37
1.46
1.36
1.09
0.77
0.52
0.40
0.38
0.41
0.41
0.36
0.28
0.19
0.13
0.09
0.03
-0.07
-0.23
-0.43
-0.63
-0.77
-0.82
-0.77
-0.63
-0.46
-0.33
-0.26
-0.25
-0.23
-0.15
0.05
0.32
0.57
0.70
0.67
0.49
0.24
-0.01
-0.22
-0.40
-0.57
-0.71
-0.76
-0.67
-0.43
-0.11
0.18
0.35
0.40
0.36
0.28
0.18
0.03
-0.19
-0.44
-0.63
-0.65
-0.41
0.02
0.49
0.82
0.89
0.72
0.42
0.17
0.06
0.11
0.23
0.31
0.29
0.17
-0.01
-0.15
-0.20
-0.14
0.02
0.25
0.47
0.61
0.61
0.46
0.19
-0.10
-0.31
-0.35
-0.21
0.05
0.33
0.52
0.57
0.53
0.47
0.49
0.66
0.94
1.28
1.57
1.72
1.71
1.53
1.21
0.80
0.35
-0.08
-0.44
-0.72
-0.90
-1.02
-1.08
-1.10
-1.03
-0.88
-0.67
-0.46
-0.31
-0.24
-0.25
-0.25
-0.18
0.00
0.29
0.64
0.97
1.20
1.27
1.14
0.85
0.49
0.16
-0.04
-0.12
-0.12
-0.12
-0.16
-0.21
-0.19
-0.04
0.24
0.53
0.72
0.70
0.47
0.11
-0.26
-0.54
-0.70
-0.74
-0.73
-0.72
-0.74
-0.77
-0.80
-0.80
-0.77
-0.70
-0.62
-0.56
-0.55
-0.58
-0.66
-0.79
-0.95
-1.12
-1.26
-1.31
-1.22
-0.95
-0.56
-0.18
0.06
0.11
0.00
-0.12
-0.12
0.07
0.37
0.62
0.67
0.48
0.12
-0.25
-0.50
-0.60
-0.60
-0.63
-0.74
-0.90
-0.99
-0.91
-0.63
-0.21
0.23
0.54
0.68
0.66
0.57
0.48
0.41
0.36
0.28
0.17
0.03
-0.09
-0.14
-0.10
0.01
0.14
0.23
0.23
0.12
-0.06
-0.27
-0.43
-0.51
-0.50
-0.42
-0.29
-0.13
0.06
0.28
0.48
0.61
0.60
0.42
0.11
-0.22
-0.43
-0.45
-0.28
-0.00
0.23
0.33
0.25
0.06
-0.13
-0.22
-0.17
-0.04
0.11
0.23
0.30
0.34
0.37
0.36
0.25
0.01
-0.30
-0.57
-0.68
-0.58
-0.36
-0.20
-0.23
-0.48
-0.81
-1.03
-0.96
-0.61
-0.13
0.27
0.46
0.41
0.23
0.05
-0.02
0.02
0.13
0.26
0.39
0.49
0.54
0.53
0.43
0.26
0.09
-0.03
-0.03
0.08
0.26
0.45
0.60
0.66
0.60
0.40
0.07
-0.32
-0.65
-0.81
-0.72
-0.42
-0.02
0.35
0.61
0.73
0.73
0.66
0.52
0.31
0.04
-0.20
-0.31
-0.20
0.11
0.51
0.84
1.00
0.96
0.83
0.72
0.71
0.80
0.90
0.89
0.71
0.40
0.07
-0.16
-0.22
-0.10
0.13
0.38
0.57
0.67
0.71
0.73
0.75
0.77
0.74
0.66
0.54
0.41
0.31
0.24
0.16
0.02
-0.18
-0.41
-0.61
-0.71
-0.71
-0.62
-0.52
-0.45
-0.40
-0.35
-0.26
-0.13
-0.05
-0.09
-0.29
-0.58
-0.83
-0.90
-0.71
-0.33
0.11
0.45
0.59
0.51
0.30
0.06
-0.11
-0.12
0.05
0.37
0.73
1.00
1.08
0.97
0.75
0.54
0.41
0.30
0.13
-0.23
-0.76
-1.29
-1.61
-1.58
-1.23
-0.73
-0.32
-0.13
-0.17
-0.31
-0.40
-0.33
-0.11
0.17
0.39
0.45
0.32
0.01
-0.42
-0.87
-1.25
-1.49
-1.51
-1.26
-0.78
-0.16
0.42
0.78
0.82
0.54
0.07
-0.40
-0.68
-0.70
-0.49
-0.18
0.10
0.29
0.37
0.37
0.31
0.19
0.04
-0.11
-0.20
-0.19
-0.08
0.07
0.18
0.19
0.06
-0.17
-0.44
-0.66
-0.78
-0.79
-0.72
-0.60
-0.44
-0.24
-0.00
0.23
0.38
0.38
0.17
-0.22
-0.64
-0.94
-0.98
-0.75
-0.33
0.13
0.46
0.62
0.60
0.47
0.32
0.18
0.06
-0.05
-0.19
-0.34
-0.50
-0.64
-0.73
-0.78
-0.79
-0.80
-0.85
-0.96
-1.10
-1.22
-1.25
-1.20
-1.10
-1.04
-1.08
-1.23
-1.39
-1.43
-1.25
-0.84
-0.28
0.27
0.69
0.91
0.98
1.03
1.13
1.32
1.58
1.84
2.05
2.21
2.28
2.25
2.07
1.71
1.21
0.70
0.32
0.20
0.36
0.68
0.98
1.13
1.04
0.78
0.45
0.16
-0.09
-0.32
-0.63
-1.05
-1.52
-1.93
-2.12
-2.00
-1.58
-0.99
-0.41
-0.00
0.17
0.13
-0.02
-0.16
-0.22
-0.20
-0.11
0.02
0.19
0.34
0.46
0.50
0.46
0.38
0.32
0.36
0.52
0.78
1.06
1.25
1.28
1.15
0.87
0.53
0.19
-0.12
-0.35
-0.47
-0.46
-0.30
-0.01
0.35
0.66
0.80
0.70
0.35
-0.12
-0.57
-0.85
-0.87
-0.65
-0.32
-0.03
0.11
0.02
-0.25
-0.60
-0.90
-1.03
-0.94
-0.64
-0.20
0.27
0.67
0.92
0.98
0.85
0.57
0.23
-0.06
-0.21
-0.17
0.02
0.27
0.48
0.55
0.46
0.22
-0.11
-0.47
-0.83
-1.15
-1.38
-1.46
-1.37
-1.12
-0.81
-0.52
-0.34
-0.30
-0.35
-0.44
-0.48
-0.45
-0.34
-0.21
-0.10
-0.05
-0.05
-0.04
-0.00
0.11
0.30
0.51
0.67
0.72
0.65
0.50
0.35
0.26
0.24
0.27
0.29
0.26
0.17
0.08
0.03
0.06
0.17
0.28
0.31
0.21
-0.02
-0.32
-0.60
-0.79
-0.84
-0.80
-0.71
-0.66
-0.66
-0.69
-0.74
-0.73
-0.66
-0.51
-0.30
-0.03
0.25
0.56
0.88
1.19
1.47
1.68
1.75
1.66
1.40
1.03
0.63
0.29
0.09
0.06
0.21
0.53
0.98
1.53
2.09
2.58
2.89
2.92
2.68
2.24
1.72
1.28
1.01
0.94
1.00
1.09
1.12
1.06
0.91
0.72
0.51
0.31
0.09
-0.14
-0.34
-0.42
-0.35
-0.13
0.16
0.38
0.44
0.30
0.03
-0.26
-0.50
-0.62
-0.65
-0.61
-0.53
-0.47
-0.43
-0.46
-0.56
-0.74
-0.96
-1.18
-1.36
-1.45
-1.47
-1.43
-1.37
-1.33
-1.33
-1.35
-1.36
-1.31
-1.19
-1.02
-0.88
-0.81
-0.86
-1.01
-1.24
-1.52
-1.82
-2.07
-2.18
-2.02
-1.51
-0.71
0.18
0.92
1.30
1.28
0.98
0.63
0.42
0.41
0.53
0.66
0.67
0.55
0.37
0.22
0.16
0.20
0.27
0.29
0.22
0.06
-0.14
-0.30
-0.36
-0.30
-0.14
0.07
0.26
0.41
0.47
0.48
0.43
0.36
0.29
0.24
0.22
0.24
0.27
0.27
0.19
0.02
-0.18
-0.35
-0.43
-0.38
-0.23
-0.05
0.09
0.15
0.14
0.10
0.08
0.07
0.06
0.03
-0.03
-0.10
-0.15
-0.21
-0.29
-0.45
-0.68
-0.93
-1.13
-1.18
-1.06
-0.83
-0.58
-0.42
-0.38
-0.41
-0.43
-0.37
-0.24
-0.09
-0.00
0.01
-0.04
-0.07
-0.02
0.11
0.30
0.46
0.60
0.72
0.89
1.10
1.31
1.40
1.28
0.93
0.45
-0.03
-0.37
-0.55
-0.60
-0.61
-0.64
-0.67
-0.64
-0.48
-0.17
0.24
0.65
0.95
1.05
0.95
0.68
0.34
0.04
-0.13
-0.18
-0.13
-0.08
-0.08
-0.17
-0.31
-0.45
-0.56
-0.63
-0.67
-0.68
-0.67
-0.58
-0.41
-0.18
0.05
0.21
0.27
0.26
0.21
0.17
0.12
0.05
-0.07
-0.23
-0.37
-0.44
-0.43
-0.32
-0.15
0.02
0.18
0.34
0.47
0.55
0.55
0.46
0.31
0.16
0.08
0.08
0.13
0.15
0.10
-0.03
-0.18
-0.29
-0.29
-0.20
-0.06
0.07
0.13
0.08
-0.07
-0.28
-0.48
-0.61
-0.64
-0.55
-0.39
-0.24
-0.14
-0.14
-0.23
-0.36
-0.51
-0.66
-0.79
-0.89
-0.89
-0.75
-0.45
-0.03
0.42
0.81
1.05
1.11
1.01
0.83
0.62
0.44
0.32
0.27
0.27
0.30
0.33
0.37
0.41
0.47
0.51
0.51
0.39
0.16
-0.15
-0.43
-0.56
-0.50
-0.25
0.08
0.36
0.50
0.48
0.36
0.25
0.25
0.35
0.47
0.48
0.28
-0.12
-0.61
-1.02
-1.20
-1.09
-0.73
-0.28
0.11
0.32
0.33
0.18
-0.04
-0.27
-0.46
-0.59
-0.66
-0.64
-0.54
-0.33
-0.02
0.34
0.67
0.86
0.85
0.66
0.37
0.09
-0.11
-0.22
-0.30
-0.41
-0.56
-0.70
-0.74
-0.62
-0.33
0.02
0.33
0.50
0.56
0.57
0.64
0.80
1.04
1.25
1.37
1.37
1.29
1.23
1.27
1.41
1.57
1.68
1.66
1.52
1.32
1.15
1.07
1.10
1.19
1.28
1.32
1.27
1.17
1.07
0.98
0.89
0.71
0.41
0.01
-0.41
-0.74
-0.87
-0.82
-0.66
-0.46
-0.29
-0.15
-0.03
0.05
0.04
-0.15
-0.53
-1.03
-1.49
-1.74
-1.67
-1.26
-0.63
0.07
0.65
1.00
1.07
0.90
0.54
0.09
-0.33
-0.66
-0.82
-0.80
-0.65
-0.43
-0.24
-0.16
-0.20
-0.35
-0.54
-0.69
-0.78
-0.78
-0.71
-0.60
-0.45
-0.27
-0.05
0.19
0.42
0.58
0.62
0.53
0.37
0.20
0.08
0.03
-0.03
-0.16
-0.41
-0.72
-1.00
-1.11
-1.06
-0.90
-0.78
-0.77
-0.85
-0.88
-0.71
-0.30
0.28
0.81
1.13
1.14
0.92
0.64
0.44
0.38
0.39
0.38
0.27
0.05
-0.20
-0.37
-0.39
-0.26
-0.03
0.21
0.40
0.52
0.57
0.56
0.50
0.38
0.23
0.10
0.05
0.13
0.34
0.63
0.92
1.16
1.30
1.36
1.36
1.30
1.20
1.08
0.94
0.83
0.77
0.74
0.70
0.60
0.39
0.05
-0.35
-0.74
-1.01
-1.08
-0.97
-0.72
-0.44
-0.23
-0.17
-0.26
-0.44
-0.65
-0.81
-0.91
-0.98
-1.08
-1.25
-1.50
-1.77
-1.97
-2.03
-1.90
-1.64
-1.36
-1.15
-1.08
-1.13
-1.21
-1.24
-1.15
-0.95
-0.69
-0.45
-0.29
-0.24
-0.25
-0.27
-0.26
-0.19
-0.10
-0.03
-0.07
-0.23
-0.45
-0.65
-0.68
-0.50
-0.14
0.30
0.68
0.90
0.89
0.70
0.38
0.03
-0.26
-0.43
-0.43
-0.28
-0.05
0.18
0.31
0.33
0.25
0.14
0.04
-0.04
-0.14
-0.30
-0.51
-0.73
-0.89
-0.93
-0.87
-0.74
-0.63
-0.59
-0.59
-0.63
-0.65
-0.66
-0.68
-0.76
-0.92
-1.11
-1.27
-1.28
-1.11
-0.81
-0.50
-0.32
-0.40
-0.70
-1.10
-1.43
-1.56
-1.48
-1.29
-1.13
-1.15
-1.34
-1.64
-1.95
-2.19
-2.36
-2.51
-2.73
-3.06
-3.51
-4.02
-4.49
-4.78
-4.71
-4.08
-2.78
-0.77
1.83
4.77
7.71
10.30
12.29
13.52
14.01
13.89
13.36
12.60
11.73
10.78
9.68
8.39
6.91
5.34
3.86
2.65
1.78
1.23
0.87
0.53
0.13
-0.35
-0.86
-1.33
-1.72
-2.03
-2.32
-2.61
-2.93
-3.27
-3.62
-3.98
-4.32
-4.63
-4.86
-4.98
-4.98
-4.87
-4.67
-4.40
-4.09
-3.73
-3.36
-3.02
-2.78
-2.71
-2.81
-3.02
-3.22
-3.27
-3.08
-2.70
-2.26
-1.94
-1.86
-2.03
-2.37
-2.73
-3.02
-3.23
-3.40
-3.62
-3.90
-4.20
-4.44
-4.56
-4.58
-4.54
-4.54
-4.63
-4.84
-5.18
-5.64
-6.18
-6.67
-6.88
-6.48
-5.15
-2.72
0.66
4.55
8.28
11.13
12.61
12.61
11.46
9.83
8.57
8.39
9.76
12.80
17.26
22.59
27.94
32.25
34.46
33.78
30.04
23.82
16.44
9.47
4.29
1.55
1.09
2.07
3.45
4.34
4.27
3.11
0.99
-1.88
-5.27
-8.88
-12.35
-15.26
-17.28
-18.23
-18.19
-17.49
-16.55
-15.70
-15.07
-14.55
-13.93
-13.01
-11.74
-10.27
-8.81
-7.58
-6.65
-5.98
-5.45
-4.92
-4.31
-3.60
-2.84
-2.04
-1.24
-0.47
0.23
0.78
1.17
1.51
2.02
2.94
4.37
6.08
7.57
8.26
7.72
5.98
3.47
0.80
-1.56
-3.44
-5.02
-6.57
-8.18
-9.75
-11.00
-11.72
-11.82
-11.38
-10.52
-9.29
-7.69
-5.73
-3.55
-1.42
0.35
1.57
2.21
2.43
2.41
2.35
2.30
2.27
2.26
2.31
2.47
2.76
3.11
3.40
3.54
3.49
3.30
3.04
2.83
2.70
2.62
2.54
2.34
1.92
1.22
0.27
-0.84
-1.91
-2.73
-3.14
-3.15
-2.86
-2.49
-2.20
-2.09
-2.14
-2.25
-2.30
-2.22
-1.96
-1.51
-0.88
-0.13
0.65
1.34
1.84
2.06
1.98
1.64
1.09
0.43
-0.21
-0.68
-0.81
-0.45
0.43
1.77
3.30
4.71
5.73
6.25
6.32
6.08
5.68
5.21
4.67
4.05
3.39
2.77
2.31
2.02
1.85
1.63
1.24
0.63
-0.10
-0.78
-1.23
-1.31
-1.05
-0.55
-0.02
0.34
0.42
0.17
-0.31
-0.92
-1.52
-2.00
-2.27
-2.32
-2.17
-1.88
-1.57
-1.34
-1.25
-1.31
-1.44
-1.59
-1.72
-1.82
-1.92
-2.02
-2.09
-2.08
-1.97
-1.76
-1.53
-1.34
-1.27
-1.31
-1.44
-1.61
-1.76
-1.93
-2.14
-2.44
-2.87
-3.42
-4.09
-4.87
-5.77
-6.80
-7.99
-9.30
-10.67
-12.02
-13.25
-14.34
-15.32
-16.30
-17.36
-18.56
-19.87
-21.20
-22.42
-23.44
-24.23
-24.84
-25.36
-25.83
-26.20
-26.35
-26.11
-25.37
-24.09
-22.21
-19.53
-15.56
-9.70
-1.48
8.97
20.78
32.46
42.42
49.54
53.52
54.91
54.59
53.38
51.65
49.41
46.53
43.02
39.09
35.06
31.15
27.36
23.60
19.80
16.03
12.57
9.71
7.70
6.61
6.27
6.41
6.69
6.83
6.61
5.98
5.01
3.87
2.80
1.96
1.44
1.15
0.93
0.58
0.02
-0.77
-1.70
-2.67
-3.64
-4.57
-5.45
-6.20
-6.66
-6.67
-6.14
-5.12
-3.83
-2.50
-1.36
-0.52
-0.01
0.18
0.06
-0.37
-1.13
-2.13
-3.23
-4.26
-5.03
-5.46
-5.50
-5.23
-4.76
-4.26
-3.92
-3.94
-4.42
-5.31
-6.44
-7.54
-8.38
-8.85
-8.97
-8.89
-8.72
-8.53
-8.30
-7.98
-7.52
-6.95
-6.33
-5.74
-5.22
-4.78
-4.35
-3.88
-3.37
-2.87
-2.45
-2.17
-2.06
-2.07
-2.13
-2.16
-2.11
-1.94
-1.64
-1.25
-0.82
-0.45
-0.27
-0.39
-0.79
-1.37
-1.91
-2.21
-2.16
-1.78
-1.24
-0.71
-0.30
-0.06
0.05
0.04
-0.04
-0.16
-0.27
-0.26
-0.07
0.28
0.70
1.01
1.06
0.81
0.34
-0.16
-0.50
-0.61
-0.53
-0.40
-0.33
-0.35
-0.38
-0.33
-0.13
0.19
0.46
0.54
0.35
-0.05
-0.47
-0.73
-0.70
-0.42
-0.03
0.31
0.51
0.60
0.65
0.73
0.88
1.05
1.17
1.21
1.12
0.92
0.63
0.34
0.13
0.10
0.28
0.65
1.08
1.43
1.58
1.54
1.39
1.27
1.25
1.35
1.48
1.54
1.51
1.43
1.41
1.56
1.90
2.37
2.85
3.22
3.45
3.59
3.73
3.97
4.35
4.82
5.25
5.51
5.51
5.20
4.58
3.65
2.43
0.96
-0.65
-2.27
-3.76
-5.05
-6.13
-6.99
-7.60
-7.91
-7.84
-7.44
-6.88
-6.41
-6.30
-6.65
-7.36
-8.15
-8.72
-8.87
-8.64
-8.20
-7.78
-7.52
-7.42
-7.39
-7.31
-7.13
-6.89
-6.70
-6.66
-6.79
-7.01
-7.15
-7.02
-6.51
-5.58
-4.25
-2.53
-0.37
2.29
5.46
9.04
12.86
16.66
20.24
23.46
26.20
28.27
29.35
29.06
27.16
23.67
18.96
13.66
8.42
3.74
-0.18
-3.31
-5.72
-7.46
-8.54
-8.99
-8.92
-8.55
-8.11
-7.79
-7.63
-7.54
-7.41
-7.22
-7.02
-6.93
-7.05
-7.38
-7.79
-8.10
-8.12
-7.80
-7.23
-6.56
-5.99
-5.64
-5.54
-5.58
-5.59
-5.36
-4.65
-3.32
-1.35
1.16
3.91
6.54
8.69
10.12
10.77
10.76
10.27
9.52
8.59
7.45
6.04
4.32
2.34
0.29
-1.63
-3.22
-4.33
-4.96
-5.14
-4.97
-4.56
-4.04
-3.59
-3.36
-3.47
-3.90
-4.51
-5.04
-5.23
-4.89
-3.97
-2.56
-0.86
0.90
2.49
3.71
4.42
4.59
4.29
3.68
2.96
2.30
1.78
1.41
1.12
0.89
0.67
0.44
0.22
0.00
-0.14
-0.15
0.04
0.45
0.99
1.58
2.12
2.58
3.01
3.44
3.90
4.40
4.91
5.41
5.89
6.30
6.52
6.38
5.73
4.57
3.01
1.33
-0.21
-1.44
-2.36
-3.11
-3.82
-4.60
-5.42
-6.19
-6.81
-7.21
-7.38
-7.36
-7.23
-7.04
-6.85
-6.66
-6.39
-5.96
-5.29
-4.39
-3.41
-2.56
-2.06
-1.98
-2.25
-2.68
-3.06
-3.20
-3.04
-2.51
-1.53
-0.05
1.91
4.19
6.45
8.30
9.47
9.90
9.77
9.36
8.96
8.68
8.49
8.29
7.98
7.56
7.10
6.66
6.28
5.92
5.50
4.94
4.15
3.13
1.89
0.53
-0.88
-2.22
-3.42
-4.40
-5.12
-5.56
-5.70
-5.55
-5.18
-4.66
-4.10
-3.58
-3.12
-2.75
-2.47
-2.27
-2.17
-2.19
-2.29
-2.40
-2.46
-2.40
-2.25
-2.07
-1.92
-1.85
-1.82
-1.75
-1.61
-1.38
-1.11
-0.87
-0.69
-0.53
-0.39
-0.26
-0.18
-0.20
-0.33
-0.50
-0.61
-0.56
-0.33
-0.00
0.31
0.50
0.49
0.33
0.11
-0.07
-0.16
-0.15
-0.08
0.05
0.20
0.36
0.49
0.55
0.47
0.27
-0.02
-0.28
-0.43
-0.43
-0.33
-0.24
-0.25
-0.39
-0.59
-0.76
-0.83
-0.80
-0.70
-0.61
-0.55
-0.51
-0.42
-0.26
-0.05
0.14
0.24
0.20
0.08
-0.05
-0.10
-0.00
0.19
0.40
0.57
0.63
0.61
0.55
0.51
0.49
0.48
0.46
0.40
0.32
0.22
0.14
0.09
0.05
0.04
0.05
0.10
0.17
0.26
0.34
0.39
0.38
0.33
0.23
0.10
-0.06
-0.23
-0.41
-0.57
-0.73
-0.88
-1.00
-1.05
-0.97
-0.76
-0.45
-0.17
-0.05
-0.14
-0.38
-0.60
-0.64
-0.43
-0.03
0.40
0.70
0.77
0.63
0.38
0.11
-0.10
-0.23
-0.29
-0.25
-0.12
0.11
0.36
0.59
0.71
0.70
0.59
0.46
0.38
0.36
0.36
0.29
0.10
-0.22
-0.57
-0.85
-1.00
-1.03
-1.00
-0.93
-0.85
-0.70
-0.46
-0.18
0.07
0.19
0.15
0.01
-0.12
-0.14
-0.00
0.23
0.46
0.56
0.50
0.28
-0.02
-0.30
-0.46
-0.44
-0.24
0.08
0.42
0.70
0.86
0.90
0.85
0.76
0.67
0.58
0.50
0.44
0.43
0.46
0.53
0.62
0.67
0.62
0.47
0.25
0.03
-0.12
-0.16
-0.09
0.03
0.10
0.08
-0.03
-0.18
-0.29
-0.29
-0.21
-0.10
-0.04
-0.07
-0.16
-0.25
-0.27
-0.20
-0.07
0.07
0.16
0.15
0.04
-0.16
-0.41
-0.68
-0.91
-1.03
-1.02
-0.86
-0.60
-0.29
-0.01
0.19
0.29
0.30
0.26
0.21
0.17
0.15
0.13
0.14
0.17
0.25
0.37
0.53
0.68
0.74
0.69
0.53
0.33
0.17
0.13
0.17
0.21
0.15
-0.06
-0.36
-0.61
-0.66
-0.45
-0.03
0.42
0.75
0.86
0.75
0.52
0.27
0.06
-0.11
-0.26
-0.41
-0.53
-0.58
-0.54
-0.41
-0.25
-0.12
-0.07
-0.11
-0.20
-0.31
-0.42
-0.50
-0.56
-0.59
-0.54
-0.38
-0.09
0.25
0.52
0.60
0.44
0.07
-0.34
-0.64
-0.69
-0.50
-0.16
0.18
0.41
0.52
0.56
0.62
0.70
0.77
0.77
0.64
0.43
0.19
0.04
0.01
0.07
0.15
0.19
0.18
0.17
0.22
0.32
0.41
0.42
0.33
0.16
-0.02
-0.15
-0.19
-0.18
-0.15
-0.11
-0.05
0.04
0.12
0.16
0.10
-0.03
-0.17
-0.20
-0.10
0.13
0.35
0.45
0.35
0.07
-0.27
-0.54
-0.65
-0.59
-0.44
-0.30
-0.25
-0.34
-0.53
-0.72
-0.83
-0.77
-0.53
-0.17
0.20
0.46
0.52
0.38
0.13
-0.15
-0.36
-0.46
-0.46
-0.38
-0.25
-0.08
0.11
0.29
0.42
0.47
0.43
0.32
0.20
0.10
0.01
-0.07
-0.14
-0.19
-0.17
-0.06
0.12
0.32
0.46
0.46
0.35
0.19
0.08
0.06
0.13
0.24
0.30
0.25
0.09
-0.14
-0.37
-0.58
-0.75
-0.91
-1.06
-1.19
-1.24
-1.18
-1.00
-0.73
-0.44
-0.16
0.07
0.28
0.47
0.62
0.70
0.66
0.52
0.31
0.14
0.11
0.26
0.58
0.95
1.25
1.34
1.17
0.75
0.21
-0.30
-0.61
-0.67
-0.53
-0.30
-0.11
-0.02
-0.03
-0.07
-0.10
-0.11
-0.14
-0.20
-0.31
-0.42
-0.49
-0.51
-0.50
-0.49
-0.48
-0.41
-0.20
0.15
0.56
0.85
0.85
0.49
-0.13
-0.79
-1.25
-1.35
-1.09
-0.61
-0.11
0.26
0.45
0.49
0.46
0.41
0.40
0.44
0.52
0.63
0.73
0.74
0.60
0.29
-0.14
-0.55
-0.84
-0.92
-0.81
-0.59
-0.35
-0.19
-0.15
-0.22
-0.37
-0.53
-0.60
-0.51
-0.22
0.21
0.69
1.05
1.20
1.13
0.91
0.63
0.36
0.11
-0.11
-0.30
-0.41
-0.39
-0.23
0.03
0.30
0.48
0.49
0.34
0.13
-0.05
-0.11
-0.02
0.17
0.36
0.49
0.52
0.45
0.34
0.20
0.05
-0.11
-0.26
-0.36
-0.39
-0.31
-0.17
0.01
0.15
0.24
0.28
0.31
0.32
0.33
0.34
0.37
0.43
0.49
0.48
0.35
0.10
-0.19
-0.42
-0.52
-0.49
-0.42
-0.41
-0.53
-0.70
-0.82
-0.78
-0.57
-0.29
-0.11
-0.14
-0.37
-0.70
-0.96
-1.04
-0.92
-0.66
-0.38
-0.17
-0.05
-0.01
0.03
0.11
0.23
0.39
0.55
0.65
0.68
0.61
0.47
0.29
0.15
0.08
0.09
0.13
0.15
0.11
0.02
-0.07
-0.11
-0.10
-0.09
-0.14
-0.27
-0.41
-0.45
-0.31
0.03
0.47
0.85
1.05
1.04
0.88
0.68
0.52
0.39
0.26
0.07
-0.20
-0.50
-0.69
-0.69
-0.46
-0.08
0.30
0.54
0.58
0.43
0.18
-0.07
-0.22
-0.23
-0.11
0.11
0.38
0.66
0.86
0.96
0.89
0.69
0.39
0.08
-0.16
-0.27
-0.24
-0.11
0.02
0.07
0.00
-0.17
-0.38
-0.53
-0.58
-0.52
-0.42
-0.34
-0.30
-0.31
-0.32
-0.33
-0.36
-0.45
-0.61
-0.80
-0.91
-0.88
-0.67
-0.35
-0.07
0.05
-0.03
-0.27
-0.52
-0.65
-0.58
-0.33
-0.01
0.24
0.37
0.39
0.37
0.42
0.58
0.81
1.03
1.11
1.00
0.70
0.31
-0.06
-0.30
-0.38
-0.36
-0.28
-0.21
-0.16
-0.12
-0.05
0.04
0.16
0.27
0.35
0.42
0.47
0.48
0.42
0.25
-0.05
-0.45
-0.85
-1.16
-1.30
-1.24
-1.00
-0.62
-0.17
0.28
0.64
0.86
0.93
0.84
0.66
0.42
0.17
-0.05
-0.20
-0.25
-0.15
0.08
0.41
0.74
0.98
1.06
0.95
0.70
0.38
0.05
-0.22
-0.40
-0.48
-0.46
-0.35
-0.19
-0.02
0.11
0.15
0.09
-0.02
-0.11
-0.13
-0.03
0.17
0.38
0.50
0.49
0.31
0.03
-0.27
-0.49
-0.58
-0.51
-0.31
-0.06
0.17
0.33
0.38
0.32
0.15
-0.08
-0.35
-0.60
-0.77
-0.81
-0.69
-0.45
-0.13
0.17
0.39
0.50
0.52
0.51
0.50
0.51
0.53
0.55
0.59
0.63
0.70
0.74
0.71
0.56
0.29
-0.06
-0.37
-0.55
-0.55
-0.41
-0.22
-0.08
-0.05
-0.13
-0.32
-0.57
-0.85
-1.12
-1.31
-1.36
-1.26
-1.01
-0.67
-0.33
-0.05
0.16
0.31
0.43
0.54
0.61
0.62
0.54
0.39
0.24
0.14
0.10
0.09
0.04
-0.09
-0.27
-0.40
-0.36
-0.08
0.36
0.80
1.04
0.95
0.58
0.11
-0.27
-0.46
-0.46
-0.40
-0.38
-0.41
-0.41
-0.30
-0.03
0.29
0.53
0.59
0.48
0.29
0.17
0.18
0.29
0.40
0.44
0.37
0.25
0.16
0.12
0.12
0.11
0.06
-0.03
-0.11
-0.14
-0.12
-0.06
0.01
0.09
0.17
0.26
0.37
0.47
0.51
0.46
0.31
0.11
-0.10
-0.26
-0.33
-0.32
-0.28
-0.24
-0.23
-0.21
-0.20
-0.20
-0.25
-0.38
-0.58
-0.76
-0.84
-0.75
-0.53
-0.24
-0.00
0.12
0.13
0.04
-0.11
-0.26
-0.40
-0.49
-0.47
-0.33
-0.11
0.14
0.32
0.39
0.40
0.41
0.50
0.67
0.83
0.88
0.74
0.44
0.09
-0.15
-0.20
-0.05
0.19
0.40
0.48
0.42
0.30
0.20
0.15
0.17
0.22
0.25
0.24
0.21
0.17
0.11
0.02
-0.10
-0.27
-0.43
-0.55
-0.59
-0.56
-0.48
-0.38
-0.27
-0.17
-0.09
-0.06
-0.11
-0.24
-0.43
-0.59
-0.65
-0.55
-0.33
-0.04
0.20
0.31
0.28
0.13
-0.07
-0.25
-0.33
-0.29
-0.15
0.04
0.21
0.33
0.38
0.40
0.40
0.42
0.45
0.47
0.48
0.49
0.49
0.48
0.42
0.27
0.01
-0.33
-0.68
-0.96
-1.07
-0.99
-0.75
-0.41
-0.11
0.07
0.10
-0.01
-0.18
-0.32
-0.34
-0.21
0.07
0.42
0.75
0.94
0.93
0.72
0.37
0.02
-0.21
-0.26
-0.16
-0.01
0.06
0.00
-0.14
-0.30
-0.37
-0.35
-0.29
-0.26
-0.32
-0.42
-0.51
-0.49
-0.36
-0.12
0.15
0.40
0.57
0.65
0.63
0.53
0.38
0.20
0.02
-0.14
-0.27
-0.38
-0.44
-0.46
-0.43
-0.35
-0.21
-0.02
0.21
0.47
0.71
0.85
0.83
0.65
0.35
0.03
-0.22
-0.36
-0.41
-0.40
-0.40
-0.42
-0.43
-0.43
-0.39
-0.35
-0.35
-0.41
-0.54
-0.75
-0.98
-1.20
-1.36
-1.43
-1.38
-1.27
-1.15
-1.12
-1.23
-1.46
-1.75
-2.00
-2.15
-2.18
-2.15
-2.11
-2.13
-2.22
-2.35
-2.48
-2.59
-2.68
-2.74
-2.73
-2.62
-2.34
-1.89
-1.29
-0.62
0.03
0.56
0.89
0.97
0.80
0.41
-0.11
-0.59
-0.91
-0.92
-0.61
-0.00
0.78
1.65
2.54
3.45
4.40
5.39
6.39
7.31
8.08
8.65
9.05
9.32
9.50
9.58
9.56
9.42
9.22
9.05
9.00
9.08
9.18
9.13
8.72
7.85
6.55
4.97
3.24
1.51
-0.16
-1.76
-3.26
-4.57
-5.61
-6.30
-6.66
-6.74
-6.65
-6.52
-6.42
-6.35
-6.28
-6.10
-5.75
-5.20
-4.57
-4.01
-3.69
-3.67
-3.92
-4.30
-4.66
-4.93
-5.08
-5.14
-5.10
-4.95
-4.65
-4.21
-3.68
-3.17
-2.72
-2.34
-1.96
-1.50
-0.97
-0.43
0.05
0.40
0.63
0.81
1.01
1.29
1.61
1.91
2.10
2.14
2.07
1.97
1.90
1.91
1.96
2.00
1.94
1.72
1.36
0.94
0.55
0.29
0.20
0.28
0.47
0.72
0.96
1.13
1.15
1.02
0.74
0.35
-0.11
-0.59
-1.03
-1.38
-1.61
-1.71
-1.72
-1.67
-1.67
-1.77
-1.99
-2.32
-2.68
-3.04
-3.34
-3.58
-3.73
-3.71
-3.48
-2.98
-2.25
-1.43
-0.71
-0.25
-0.12
-0.23
-0.38
-0.35
-0.01
0.56
1.19
1.62
1.72
1.55
1.31
1.23
1.43
1.87
2.38
2.78
2.98
3.00
2.96
2.93
2.93
2.93
2.87
2.73
2.52
2.28
2.07
1.89
1.74
1.60
1.43
1.25
1.06
0.90
0.76
0.62
0.44
0.20
-0.08
-0.36
-0.55
-0.60
-0.55
-0.46
-0.41
-0.45
-0.53
-0.60
-0.59
-0.48
-0.32
-0.18
-0.13
-0.20
-0.37
-0.54
-0.64
-0.61
-0.45
-0.21
0.00
0.08
-0.00
-0.22
-0.48
-0.68
-0.79
-0.80
-0.75
-0.67
-0.52
-0.31
-0.03
0.26
0.48
0.57
0.53
0.43
0.33
0.28
0.24
0.18
0.04
-0.16
-0.35
-0.43
-0.37
-0.16
0.14
0.42
0.64
0.74
0.74
0.65
0.49
0.28
0.05
-0.15
-0.26
-0.25
-0.14
0.02
0.14
0.19
0.13
-0.02
-0.26
-0.52
-0.76
-0.92
-0.92
-0.74
-0.43
-0.08
0.16
0.20
0.03
-0.27
-0.55
-0.72
-0.76
-0.69
-0.60
-0.54
-0.54
-0.57
-0.60
-0.58
-0.52
-0.45
-0.41
-0.41
-0.47
-0.52
-0.52
-0.42
-0.22
-0.00
0.14
0.15
0.03
-0.15
-0.28
-0.27
-0.05
0.33
0.78
1.18
1.40
1.39
1.15
0.76
0.34
-0.00
-0.20
-0.24
-0.16
-0.01
0.14
0.24
0.25
0.17
0.01
-0.18
-0.34
-0.43
-0.42
-0.33
-0.22
-0.12
-0.06
-0.04
-0.05
-0.10
-0.17
-0.28
-0.37
-0.41
-0.34
-0.16
0.12
0.43
0.69
0.86
0.93
0.93
0.87
0.79
0.69
0.58
0.48
0.41
0.38
0.37
0.35
0.26
0.09
-0.14
-0.36
-0.52
-0.56
-0.48
-0.33
-0.15
0.00
0.10
0.11
0.02
-0.15
-0.38
-0.58
-0.70
-0.68
-0.55
-0.37
-0.22
-0.15
-0.13
-0.12
-0.06
0.06
0.18
0.23
0.17
0.02
-0.17
-0.32
-0.38
-0.34
-0.19
0.06
0.38
0.73
1.01
1.14
1.03
0.72
0.31
-0.05
-0.24
-0.23
-0.09
0.09
0.22
0.29
0.33
0.36
0.36
0.29
0.12
-0.13
-0.38
-0.55
-0.59
-0.54
-0.46
-0.46
-0.56
-0.72
-0.87
-0.92
-0.84
-0.67
-0.49
-0.39
-0.45
-0.68
-1.08
-1.61
-2.20
-2.79
-3.33
-3.78
-4.10
-4.30
-4.42
-4.52
-4.68
-4.95
-5.31
-5.65
-5.83
-5.72
-5.30
-4.66
-3.99
-3.50
-3.34
-3.54
-4.02
-4.67
-5.31
-5.78
-5.88
-5.46
-4.43
-2.88
-1.05
0.72
2.12
2.98
3.33
3.34
3.20
3.05
2.92
2.83
2.81
2.91
3.22
3.77
4.56
5.47
6.35
7.04
7.43
7.48
7.25
6.84
6.35
5.83
5.29
4.71
4.05
3.34
2.59
1.89
1.31
0.88
0.60
0.42
0.29
0.16
-0.01
-0.19
-0.34
-0.41
-0.37
-0.26
-0.12
-0.00
0.09
0.18
0.27
0.38
0.49
0.57
0.61
0.62
0.60
0.56
0.53
0.50
0.46
0.43
0.39
0.35
0.32
0.35
0.49
0.76
1.17
1.62
2.02
2.24
2.23
2.01
1.69
1.35
1.08
0.91
0.84
0.88
1.03
1.31
1.69
2.09
2.40
2.54
2.45
2.20
1.85
1.49
1.18
0.90
0.65
0.39
0.13
-0.14
-0.41
-0.68
-0.97
-1.28
-1.58
-1.84
-2.02
-2.09
-2.01
-1.82
-1.55
-1.28
-1.09
-1.04
-1.16
-1.42
-1.76
-2.09
-2.35
-2.50
-2.54
-2.50
-2.38
-2.15
-1.77
-1.28
-0.73
-0.26
-0.01
-0.02
-0.28
-0.64
-0.96
-1.11
-1.09
-0.92
-0.70
-0.49
-0.31
-0.14
0.07
0.34
0.68
1.03
1.33
1.51
1.55
1.47
1.30
1.12
0.96
0.81
0.67
0.52
0.34
0.19
0.09
0.06
0.09
0.11
0.09
-0.00
-0.14
-0.30
-0.41
-0.45
-0.44
-0.40
-0.38
-0.39
-0.43
-0.49
-0.53
-0.51
-0.43
-0.30
-0.15
-0.03
0.02
-0.01
-0.12
-0.26
-0.40
-0.51
-0.58
-0.58
-0.52
-0.38
-0.16
0.10
0.36
0.54
0.60
0.54
0.40
0.22
0.07
-0.03
-0.09
-0.07
0.02
0.20
0.44
0.70
0.92
1.06
1.14
1.21
1.33
1.53
1.76
1.90
1.86
1.60
1.18
0.77
0.53
0.53
0.75
1.03
1.23
1.22
1.03
0.73
0.42
0.18
0.01
-0.13
-0.29
-0.50
-0.74
-0.97
-1.16
-1.27
-1.32
-1.31
-1.28
-1.19
-1.02
-0.73
-0.32
0.16
0.57
0.78
0.71
0.37
-0.10
-0.53
-0.77
-0.78
-0.61
-0.40
-0.28
-0.33
-0.52
-0.74
-0.87
-0.84
-0.62
-0.31
0.00
0.22
0.29
0.22
0.06
-0.11
-0.23
-0.29
-0.27
-0.17
-0.02
0.16
0.33
0.47
0.51
0.43
0.19
-0.19
-0.62
-0.97
-1.10
-0.95
-0.57
-0.10
0.25
0.35
0.20
-0.12
-0.46
-0.66
-0.67
-0.48
-0.19
0.13
0.37
0.48
0.45
0.30
0.11
-0.05
-0.12
-0.08
0.09
0.36
0.70
1.05
1.35
1.49
1.41
1.11
0.66
0.21
-0.13
-0.31
-0.35
-0.28
-0.15
0.03
0.23
0.41
0.48
0.38
0.08
-0.34
-0.73
-0.95
-0.94
-0.73
-0.43
-0.16
0.01
0.10
0.17
0.25
0.38
0.54
0.66
0.72
0.68
0.52
0.26
-0.04
-0.27
-0.36
-0.26
-0.04
0.21
0.33
0.25
-0.03
-0.42
-0.78
-0.99
-0.98
-0.79
-0.48
-0.17
0.05
0.14
0.12
0.08
0.08
0.17
0.29
0.34
0.24
-0.01
-0.34
-0.62
-0.74
-0.67
-0.48
-0.29
-0.19
-0.19
-0.23
-0.23
-0.14
-0.01
0.08
0.06
-0.10
-0.35
-0.57
-0.70
-0.69
-0.60
-0.50
-0.44
-0.40
-0.33
-0.20
-0.02
0.10
0.10
-0.05
-0.30
-0.50
-0.53
-0.34
-0.01
0.36
0.63
0.74
0.73
0.67
0.62
0.62
0.68
0.74
0.79
0.81
0.82
0.83
0.85
0.85
0.78
0.61
0.34
0.01
-0.35
-0.68
-0.94
-1.08
-1.08
-0.93
-0.68
-0.42
-0.24
-0.19
-0.27
-0.40
-0.49
-0.45
-0.26
0.02
0.32
0.54
0.61
0.53
0.30
-0.02
-0.33
-0.58
-0.69
-0.66
-0.52
-0.32
-0.12
0.05
0.17
0.24
0.27
0.25
0.21
0.17
0.16
0.21
0.34
0.54
0.77
0.95
1.02
0.93
0.71
0.41
0.11
-0.15
-0.32
-0.41
-0.43
-0.40
-0.32
-0.21
-0.08
0.03
0.13
0.19
0.24
0.26
0.22
0.10
-0.11
-0.36
-0.59
-0.72
-0.72
-0.60
-0.44
-0.30
-0.26
-0.31
-0.41
-0.49
-0.47
-0.32
-0.05
0.24
0.46
0.50
0.36
0.08
-0.21
-0.44
-0.58
-0.67
-0.77
-0.89
-0.97
-0.93
-0.72
-0.37
0.03
0.35
0.56
0.66
0.74
0.85
1.01
1.12
1.11
0.90
0.50
0.03
-0.35
-0.50
-0.35
0.06
0.60
1.06
1.30
1.24
0.91
0.44
-0.03
-0.40
-0.59
-0.58
-0.41
-0.13
0.16
0.39
0.50
0.49
0.39
0.24
0.11
0.03
0.03
0.09
0.18
0.24
0.21
0.06
-0.17
-0.40
-0.55
-0.56
-0.44
-0.26
-0.09
0.04
0.11
0.16
0.17
0.12
-0.00
-0.19
-0.35
-0.41
-0.31
-0.09
0.13
0.24
0.23
0.11
0.02
0.05
0.20
0.43
0.62
0.67
0.55
0.30
-0.00
-0.28
-0.51
-0.64
-0.68
-0.59
-0.37
-0.03
0.35
0.66
0.77
0.60
0.16
-0.42
-0.95
-1.26
-1.26
-0.99
-0.59
-0.22
-0.01
0.05
0.02
0.00
0.05
0.13
0.18
0.15
0.05
-0.03
-0.03
0.09
0.27
0.41
0.41
0.24
-0.04
-0.33
-0.52
-0.57
-0.49
-0.31
-0.09
0.13
0.33
0.49
0.61
0.69
0.74
0.77
0.80
0.81
0.76
0.62
0.36
-0.01
-0.42
-0.77
-0.96
-0.92
-0.67
-0.34
-0.06
0.01
-0.16
-0.52
-0.90
-1.13
-1.13
-0.94
-0.65
-0.38
-0.18
-0.02
0.13
0.26
0.33
0.29
0.10
-0.15
-0.34
-0.38
-0.26
-0.05
0.10
0.12
0.03
-0.07
-0.05
0.14
0.44
0.72
0.86
0.83
0.70
0.62
0.65
0.78
0.90
0.87
0.64
0.24
-0.17
-0.43
-0.46
-0.31
-0.09
0.05
0.04
-0.09
-0.29
-0.45
-0.54
-0.56
-0.54
-0.50
-0.42
-0.22
0.11
0.53
0.92
1.14
1.09
0.83
0.49
0.24
0.19
0.29
0.41
0.42
0.27
-0.00
-0.27
-0.44
-0.49
-0.48
-0.47
-0.51
-0.60
-0.70
-0.77
-0.79
-0.74
-0.64
-0.50
-0.36
-0.28
-0.28
-0.37
-0.52
-0.72
-0.91
-1.07
-1.14
-1.07
-0.85
-0.48
-0.05
0.36
0.63
0.70
0.55
0.25
-0.10
-0.38
-0.48
-0.34
0.01
0.48
0.94
1.25
1.31
1.12
0.77
0.36
0.01
-0.23
-0.38
-0.44
-0.44
-0.37
-0.23
0.00
0.27
0.51
0.61
0.55
0.37
0.16
0.02
0.01
0.11
0.21
0.24
0.15
0.01
-0.09
-0.07
0.10
0.35
0.60
0.76
0.77
0.65
0.45
0.20
-0.05
-0.29
-0.47
-0.57
-0.53
-0.33
-0.01
0.34
0.61
0.71
0.62
0.37
0.04
-0.29
-0.57
-0.76
-0.87
-0.90
-0.84
-0.69
-0.47
-0.24
-0.06
-0.02
-0.16
-0.43
-0.74
-0.96
-0.96
-0.71
-0.26
0.27
0.73
1.00
1.04
0.91
0.70
0.51
0.41
0.41
0.48
0.56
0.61
0.60
0.55
0.46
0.35
0.22
0.11
0.04
0.00
0.01
0.03
0.03
0.00
-0.08
-0.19
-0.29
-0.34
-0.30
-0.15
0.04
0.20
0.26
0.20
0.12
0.12
0.26
0.53
0.79
0.92
0.83
0.57
0.25
0.00
-0.16
-0.26
-0.38
-0.53
-0.65
-0.66
-0.51
-0.23
0.08
0.31
0.41
0.40
0.34
0.28
0.25
0.22
0.14
-0.02
-0.26
-0.54
-0.76
-0.86
-0.77
-0.49
-0.08
0.34
0.61
0.61
0.29
-0.25
-0.83
-1.26
-1.41
-1.28
-0.97
-0.64
-0.40
-0.28
-0.21
-0.10
0.07
0.30
0.51
0.61
0.58
0.46
0.33
0.29
0.37
0.56
0.77
0.92
0.91
0.74
0.47
0.20
0.02
-0.01
0.08
0.22
0.32
0.35
0.30
0.19
0.05
-0.10
-0.25
-0.40
-0.53
-0.60
-0.62
-0.59
-0.54
-0.49
-0.43
-0.34
-0.20
-0.05
0.03
-0.03
-0.23
-0.51
-0.76
-0.87
-0.80
-0.56
-0.25
0.06
0.30
0.44
0.50
0.49
0.43
0.34
0.23
0.11
0.01
-0.04
-0.02
0.10
0.29
0.48
0.58
0.52
0.33
0.10
-0.08
-0.16
-0.15
-0.14
-0.18
-0.26
-0.29
-0.19
0.03
0.27
0.38
0.27
-0.04
-0.40
-0.61
-0.56
-0.24
0.21
0.61
0.84
0.83
0.66
0.44
0.27
0.19
0.19
0.23
0.24
0.22
0.18
0.12
0.09
0.08
0.10
0.14
0.19
0.23
0.24
0.20
0.10
-0.05
-0.19
-0.21
-0.06
0.21
0.50
0.66
0.60
0.32
-0.08
-0.44
-0.68
-0.78
-0.78
-0.75
-0.69
-0.56
-0.35
-0.07
0.20
0.36
0.33
0.13
-0.15
-0.42
-0.61
-0.67
-0.63
-0.56
-0.53
-0.54
-0.59
-0.61
-0.53
-0.30
0.05
0.42
0.70
0.78
0.63
0.32
-0.04
-0.32
-0.42
-0.33
-0.05
0.31
0.66
0.91
0.98
0.88
0.66
0.45
0.34
0.37
0.47
0.54
0.48
0.26
-0.03
-0.29
-0.45
-0.53
-0.59
-0.70
-0.82
-0.84
-0.65
-0.23
0.29
0.70
0.82
0.60
0.17
-0.27
-0.57
-0.67
-0.66
-0.64
-0.69
-0.79
-0.87
-0.87
-0.78
-0.67
-0.58
-0.49
-0.40
-0.23
0.02
0.30
0.52
0.60
0.50
0.24
-0.11
-0.48
-0.75
-0.82
-0.64
-0.20
0.35
0.84
1.05
0.92
0.52
0.04
-0.31
-0.45
-0.41
-0.31
-0.25
-0.27
-0.31
-0.30
-0.22
-0.10
-0.03
-0.05
-0.15
-0.26
-0.32
-0.31
-0.27
-0.25
-0.30
-0.39
-0.46
-0.40
-0.15
0.29
0.86
1.40
1.76
1.84
1.62
1.23
0.79
0.44
0.23
0.16
0.15
0.16
0.18
0.22
0.32
0.46
0.54
0.49
0.25
-0.14
-0.54
-0.78
-0.78
-0.53
-0.16
0.18
0.37
0.41
0.37
0.37
0.43
0.55
0.64
0.62
0.47
0.21
-0.10
-0.40
-0.65
-0.84
-0.96
-0.96
-0.82
-0.51
-0.11
0.25
0.44
0.37
0.05
-0.37
-0.72
-0.87
-0.77
-0.49
-0.18
0.05
0.15
0.16
0.11
0.08
0.05
0.03
0.02
0.04
0.07
0.09
0.07
-0.04
-0.24
-0.46
-0.64
-0.74
-0.73
-0.68
-0.61
-0.56
-0.51
-0.43
-0.31
-0.15
-0.00
0.11
0.18
0.25
0.35
0.52
0.74
0.96
1.10
1.13
1.03
0.85
0.65
0.48
0.37
0.31
0.26
0.18
0.08
-0.02
-0.09
-0.08
0.01
0.14
0.25
0.32
0.29
0.20
0.08
-0.06
-0.19
-0.30
-0.39
-0.45
-0.42
-0.29
-0.05
0.22
0.45
0.57
0.55
0.42
0.27
0.15
0.08
0.05
0.03
-0.01
-0.04
-0.05
-0.08
-0.13
-0.25
-0.40
-0.51
-0.52
-0.39
-0.14
0.13
0.37
0.53
0.63
0.66
0.62
0.45
0.15
-0.26
-0.68
-1.02
-1.24
-1.34
-1.37
-1.35
-1.25
-1.04
-0.71
-0.35
-0.06
0.06
0.02
-0.10
-0.19
-0.16
0.01
0.26
0.52
0.71
0.82
0.83
0.75
0.60
0.42
0.23
0.11
0.09
0.19
0.38
0.61
0.79
0.86
0.78
0.59
0.31
0.01
-0.28
-0.53
-0.71
-0.76
-0.62
-0.29
0.15
0.55
0.75
0.66
0.31
-0.14
-0.50
-0.65
-0.61
-0.50
-0.44
-0.50
-0.61
-0.64
-0.50
-0.18
0.18
0.40
0.34
0.02
-0.39
-0.66
-0.61
-0.24
0.28
0.69
0.84
0.73
0.46
0.22
0.08
0.05
0.06
0.02
-0.10
-0.27
-0.46
-0.63
-0.78
-0.91
-0.98
-0.98
-0.91
-0.78
-0.59
-0.33
0.01
0.40
0.77
1.01
1.02
0.77
0.34
-0.10
-0.39
-0.41
-0.17
0.19
0.49
0.61
0.56
0.45
0.41
0.49
0.66
0.80
0.84
0.81
0.82
1.01
1.40
1.89
2.32
2.51
2.40
2.00
1.46
0.92
0.50
0.33
0.44
0.81
1.33
1.85
2.19
2.25
2.07
1.75
1.46
1.26
1.12
0.97
0.72
0.39
0.08
-0.10
-0.05
0.23
0.66
1.12
1.49
1.70
1.73
1.61
1.38
1.06
0.68
0.22
-0.31
-0.91
-1.53
-2.10
-2.56
-2.85
-2.95
-2.88
-2.67
-2.38
-2.05
-1.75
-1.50
-1.34
-1.29
-1.33
-1.44
-1.54
-1.58
-1.49
-1.28
-0.97
-0.61
-0.29
-0.04
0.14
0.31
0.49
0.69
0.84
0.83
0.61
0.21
-0.25
-0.58
-0.67
-0.49
-0.14
0.23
0.50
0.63
0.64
0.54
0.37
0.12
-0.22
-0.62
-1.02
-1.34
-1.50
-1.46
-1.24
-0.91
-0.56
-0.28
-0.13
-0.15
-0.29
-0.50
-0.71
-0.88
-0.97
-0.98
-0.92
-0.83
-0.76
-0.76
-0.82
-0.91
-0.92
-0.80
-0.51
-0.12
0.27
0.56
0.68
0.66
0.54
0.41
0.33
0.31
0.32
0.33
0.30
0.24
0.19
0.18
0.26
0.42
0.59
0.70
0.70
0.58
0.41
0.25
0.15
0.10
0.05
-0.02
-0.09
-0.13
-0.09
0.02
0.18
0.33
0.44
0.50
0.57
0.69
0.87
1.12
1.39
1.61
1.72
1.73
1.65
1.54
1.46
1.45
1.53
1.68
1.85
1.98
2.03
1.95
1.72
1.36
0.95
0.56
0.29
0.19
0.27
0.47
0.71
0.90
0.95
0.84
0.55
0.08
-0.49
-1.09
-1.61
-1.97
-2.12
-2.10
-2.01
-2.00
-2.14
-2.44
-2.76
-2.95
-2.87
-2.52
-2.02
-1.53
-1.20
-1.06
-1.02
-0.96
-0.86
-0.73
-0.68
-0.78
-1.02
-1.29
-1.47
-1.48
-1.33
-1.10
-0.86
-0.64
-0.44
-0.21
0.02
0.20
0.25
0.13
-0.14
-0.43
-0.59
-0.51
-0.18
0.31
0.78
1.07
1.12
0.98
0.74
0.54
0.41
0.33
0.24
0.09
-0.09
-0.25
-0.31
-0.28
-0.20
-0.17
-0.20
-0.28
-0.34
-0.32
-0.22
-0.10
-0.01
0.01
-0.04
-0.11
-0.16
-0.16
-0.13
-0.10
-0.09
-0.11
-0.11
-0.07
0.02
0.13
0.24
0.32
0.35
0.35
0.33
0.31
0.29
0.27
0.22
0.12
-0.04
-0.21
-0.34
-0.39
-0.34
-0.21
-0.05
0.09
0.18
0.21
0.15
0.01
-0.19
-0.41
-0.59
-0.67
-0.62
-0.48
-0.32
-0.19
-0.11
-0.04
0.07
0.22
0.38
0.46
0.40
0.21
-0.07
-0.33
-0.51
-0.57
-0.48
-0.28
-0.01
0.24
0.38
0.33
0.08
-0.28
-0.61
-0.80
-0.81
-0.67
-0.51
-0.38
-0.30
-0.21
-0.07
0.15
0.40
0.63
0.80
0.92
1.01
1.08
1.10
1.02
0.78
0.42
0.00
-0.32
-0.45
-0.34
-0.04
0.35
0.71
0.93
0.98
0.86
0.62
0.33
0.02
-0.26
-0.50
-0.64
-0.66
-0.57
-0.37
-0.15
0.01
0.08
0.06
0.00
-0.02
0.05
0.22
0.42
0.60
0.68
0.62
0.44
0.17
-0.16
-0.48
-0.74
-0.86
-0.79
-0.52
-0.14
0.22
0.42
0.38
0.12
-0.24
-0.57
-0.78
-0.84
-0.80
-0.70
-0.55
-0.38
-0.21
-0.06
0.03
0.08
0.13
0.21
0.31
0.39
0.43
0.40
0.34
0.30
0.31
0.31
0.25
0.09
-0.14
-0.31
-0.33
-0.16
0.13
0.36
0.40
0.21
-0.12
-0.45
-0.64
-0.62
-0.44
-0.21
-0.04
0.01
-0.04
-0.15
-0.27
-0.33
-0.32
-0.20
0.03
0.31
0.60
0.79
0.83
0.69
0.41
0.07
-0.24
-0.42
-0.42
-0.24
0.10
0.48
0.79
0.90
0.73
0.29
-0.33
-0.96
-1.41
-1.56
-1.40
-0.99
-0.48
0.00
0.35
0.51
0.54
0.51
0.49
0.51
0.57
0.62
0.62
0.57
0.46
0.33
0.20
0.07
-0.06
-0.21
-0.37
-0.51
-0.64
-0.72
-0.74
-0.67
-0.48
-0.18
0.19
0.54
0.77
0.80
0.64
0.35
0.05
-0.18
-0.29
-0.30
-0.28
-0.26
-0.23
-0.18
-0.08
0.05
0.15
0.17
0.08
-0.07
-0.23
-0.32
-0.30
-0.15
0.10
0.41
0.73
1.01
1.18
1.21
1.08
0.83
0.53
0.22
-0.05
-0.28
-0.50
-0.71
-0.93
-1.13
-1.26
-1.30
-1.21
-0.99
-0.66
-0.28
0.08
0.36
0.53
0.57
0.49
0.34
0.14
-0.05
-0.19
-0.24
-0.21
-0.11
0.04
0.18
0.26
0.25
0.15
0.02
-0.07
-0.03
0.14
0.38
0.57
0.61
0.47
0.19
-0.08
-0.23
-0.21
-0.04
0.15
0.29
0.31
0.24
0.12
-0.01
-0.12
-0.22
-0.29
-0.32
-0.27
-0.15
-0.02
0.05
-0.00
-0.18
-0.39
-0.53
-0.54
-0.42
-0.26
-0.15
-0.13
-0.16
-0.19
-0.19
-0.17
-0.19
-0.27
-0.38
-0.45
-0.41
-0.25
0.00
0.24
0.39
0.40
0.32
0.19
0.11
0.11
0.21
0.38
0.54
0.61
0.56
0.41
0.20
0.03
-0.03
0.02
0.15
0.30
0.41
0.48
0.52
0.54
0.53
0.45
0.30
0.10
-0.09
-0.18
-0.15
-0.03
0.11
0.16
0.09
-0.08
-0.29
-0.42
-0.43
-0.34
-0.20
-0.09
-0.04
-0.04
-0.05
-0.00
0.11
0.26
0.35
0.30
0.11
-0.17
-0.41
-0.50
-0.40
-0.18
0.06
0.20
0.18
0.06
-0.08
-0.16
-0.16
-0.10
-0.04
-0.03
-0.08
-0.15
-0.21
-0.23
-0.23
-0.21
-0.19
-0.18
-0.17
-0.19
-0.21
-0.22
-0.17
-0.07
0.07
0.22
0.31
0.33
0.29
0.24
0.24
0.31
0.43
0.53
0.54
0.40
0.14
-0.15
-0.37
-0.43
-0.32
-0.07
0.20
0.39
0.44
0.35
0.20
0.04
-0.03
0.01
0.16
0.36
0.54
0.63
0.57
0.37
0.09
-0.18
-0.35
-0.37
-0.25
-0.04
0.18
0.33
0.36
0.24
-0.01
-0.34
-0.65
-0.87
-0.92
-0.81
-0.59
-0.36
-0.20
-0.13
-0.13
-0.14
-0.11
-0.04
0.02
-0.01
-0.16
-0.38
-0.59
-0.71
-0.67
-0.52
-0.32
-0.19
-0.16
-0.21
-0.25
-0.21
-0.04
0.25
0.57
0.85
1.03
1.11
1.08
0.95
0.72
0.40
0.05
-0.23
-0.38
-0.35
-0.17
0.09
0.30
0.39
0.31
0.09
-0.21
-0.49
-0.69
-0.75
-0.64
-0.37
0.02
0.47
0.85
1.06
0.98
0.63
0.10
-0.44
-0.78
-0.80
-0.52
-0.07
0.38
0.65
0.69
0.51
0.20
-0.13
-0.42
-0.60
-0.68
-0.65
-0.54
-0.38
-0.22
-0.10
-0.07
-0.12
-0.22
-0.30
-0.29
-0.16
0.06
0.26
0.35
0.28
0.10
-0.10
-0.19
-0.10
0.12
0.37
0.54
0.57
0.48
0.35
0.21
0.09
-0.04
-0.17
-0.29
-0.34
-0.28
-0.15
-0.01
0.05
-0.01
-0.15
-0.28
-0.33
-0.27
-0.16
-0.06
-0.03
-0.05
-0.09
-0.10
-0.10
-0.14
-0.24
-0.37
-0.42
-0.29
0.04
0.46
0.80
0.93
0.79
0.51
0.20
0.01
-0.08
-0.12
-0.20
-0.37
-0.56
-0.72
-0.78
-0.70
-0.50
-0.20
0.15
0.49
0.73
0.80
0.68
0.44
0.19
0.05
0.05
0.14
0.23
0.25
0.19
0.09
-0.01
-0.08
-0.13
-0.15
-0.13
-0.05
0.07
0.18
0.22
0.14
-0.05
-0.27
-0.43
-0.49
-0.42
-0.27
-0.10
0.09
0.28
0.46
0.58
0.57
0.38
0.07
-0.24
-0.41
-0.32
0.00
0.45
0.85
1.07
1.06
0.85
0.53
0.19
-0.09
-0.27
-0.31
-0.23
-0.11
-0.01
-0.01
-0.13
-0.32
-0.48
-0.52
-0.41
-0.19
0.05
0.23
0.30
0.29
0.23
0.18
0.19
0.26
0.38
0.49
0.54
0.48
0.31
0.06
-0.19
-0.40
-0.53
-0.57
-0.53
-0.40
-0.22
-0.01
0.18
0.33
0.40
0.41
0.37
0.30
0.21
0.09
-0.07
-0.26
-0.45
-0.59
-0.66
-0.62
-0.50
-0.32
-0.11
0.07
0.15
0.12
-0.03
-0.23
-0.43
-0.59
-0.68
-0.75
-0.81
-0.86
-0.88
-0.85
-0.75
-0.58
-0.35
-0.10
0.14
0.33
0.45
0.50
0.49
0.46
0.41
0.29
0.08
-0.23
-0.55
-0.74
-0.68
-0.32
0.23
0.80
1.19
1.31
1.15
0.81
0.44
0.15
0.01
0.02
0.12
0.21
0.21
0.07
-0.21
-0.53
-0.78
-0.86
-0.75
-0.51
-0.27
-0.14
-0.16
-0.29
-0.42
-0.44
-0.27
0.06
0.49
0.89
1.16
1.26
1.18
0.94
0.57
0.11
-0.37
-0.78
-0.99
-0.96
-0.72
-0.37
-0.04
0.16
0.24
0.24
0.21
0.18
0.12
0.00
-0.15
-0.26
-0.27
-0.16
-0.02
0.03
-0.11
-0.46
-0.91
-1.29
-1.43
-1.22
-0.69
0.03
0.73
1.22
1.39
1.22
0.83
0.38
0.03
-0.13
-0.10
0.02
0.16
0.29
0.41
0.54
0.69
0.78
0.73
0.48
0.07
-0.38
-0.71
-0.78
-0.58
-0.18
0.22
0.46
0.46
0.26
-0.04
-0.30
-0.42
-0.42
-0.38
-0.37
-0.44
-0.55
-0.61
-0.52
-0.24
0.17
0.61
0.91
0.98
0.81
0.48
0.14
-0.07
-0.08
0.08
0.32
0.49
0.51
0.37
0.13
-0.11
-0.28
-0.35
-0.36
-0.34
-0.32
-0.28
-0.18
-0.00
0.21
0.39
0.49
0.45
0.32
0.17
0.08
0.08
0.13
0.18
0.13
-0.02
-0.25
-0.48
-0.64
-0.69
-0.61
-0.43
-0.17
0.10
0.32
0.41
0.31
0.04
-0.35
-0.76
-1.07
-1.16
-1.01
-0.62
-0.11
0.38
0.70
0.72
0.45
-0.02
-0.52
-0.85
-0.88
-0.59
-0.08
0.49
0.98
1.27
1.31
1.12
0.77
0.36
0.03
-0.13
-0.06
0.18
0.49
0.74
0.85
0.80
0.65
0.46
0.31
0.19
0.10
0.03
-0.05
-0.11
-0.18
-0.25
-0.32
-0.39
-0.43
-0.43
-0.37
-0.28
-0.20
-0.17
-0.16
-0.14
-0.07
0.07
0.22
0.33
0.34
0.25
0.09
-0.07
-0.16
-0.14
-0.02
0.16
0.34
0.41
0.34
0.10
-0.25
-0.57
-0.75
-0.74
-0.54
-0.26
-0.01
0.12
0.12
0.04
-0.04
-0.06
0.01
0.13
0.24
0.29
0.23
0.09
-0.09
-0.24
-0.30
-0.25
-0.12
0.01
0.08
0.08
0.04
-0.00
-0.01
0.00
-0.00
-0.06
-0.18
-0.32
-0.44
-0.50
-0.46
-0.32
-0.11
0.10
0.24
0.24
0.09
-0.15
-0.37
-0.45
-0.38
-0.19
-0.01
0.09
0.07
-0.02
-0.07
-0.06
0.02
0.13
0.23
0.31
0.38
0.47
0.54
0.56
0.47
0.29
0.05
-0.16
-0.27
-0.26
-0.17
-0.05
0.05
0.12
0.15
0.17
0.20
0.23
0.29
0.36
0.45
0.55
0.60
0.56
0.41
0.18
-0.07
-0.29
-0.44
-0.58
-0.76
-0.99
-1.22
-1.34
-1.25
-0.94
-0.45
0.08
0.53
0.83
0.95
0.92
0.76
0.53
0.27
0.02
-0.15
-0.22
-0.17
-0.05
0.11
0.28
0.43
0.54
0.59
0.58
0.48
0.29
0.03
-0.24
-0.43
-0.47
-0.32
-0.01
0.33
0.55
0.49
0.14
-0.40
-0.93
-1.25
-1.28
-1.06
-0.73
-0.45
-0.28
-0.21
-0.16
-0.11
-0.07
-0.08
-0.16
-0.23
-0.18
0.05
0.43
0.81
1.01
0.95
0.65
0.25
-0.10
-0.29
-0.30
-0.19
-0.06
0.05
0.11
0.16
0.22
0.32
0.46
0.59
0.66
0.63
0.50
0.29
0.09
-0.06
-0.14
-0.14
-0.13
-0.13
-0.19
-0.30
-0.44
-0.59
-0.67
-0.64
-0.47
-0.18
0.15
0.41
0.48
0.35
0.12
-0.08
-0.11
0.08
0.39
0.66
0.73
0.51
0.07
-0.41
-0.74
-0.84
-0.74
-0.59
-0.50
-0.51
-0.55
-0.49
-0.25
0.14
0.56
0.86
0.96
0.87
0.71
0.58
0.53
0.55
0.56
0.48
0.29
0.02
-0.26
-0.46
-0.53
-0.46
-0.30
-0.11
0.04
0.09
0.02
-0.15
-0.36
-0.55
-0.65
-0.61
-0.43
-0.15
0.15
0.39
0.51
0.51
0.42
0.26
0.08
-0.11
-0.31
-0.50
-0.64
-0.71
-0.66
-0.51
-0.29
-0.02
0.23
0.46
0.66
0.82
0.89
0.84
0.65
0.31
-0.13
-0.56
-0.92
-1.12
-1.15
-1.03
-0.80
-0.53
-0.29
-0.08
0.09
0.25
0.38
0.46
0.46
0.37
0.24
0.11
0.04
0.04
0.06
0.06
-0.00
-0.12
-0.21
-0.24
-0.21
-0.18
-0.22
-0.35
-0.48
-0.50
-0.33
0.02
0.44
0.78
0.96
0.99
0.92
0.81
0.66
0.43
0.12
-0.22
-0.50
-0.59
-0.47
-0.18
0.15
0.39
0.50
0.45
0.29
0.07
-0.18
-0.43
-0.63
-0.75
-0.76
-0.68
-0.52
-0.32
-0.10
0.13
0.33
0.47
0.51
0.43
0.28
0.09
-0.05
-0.10
-0.05
0.06
0.17
0.21
0.13
-0.07
-0.33
-0.55
-0.66
-0.62
-0.46
-0.27
-0.11
-0.03
-0.02
-0.04
-0.05
-0.02
0.01
0.03
-0.02
-0.14
-0.32
-0.53
-0.68
-0.68
-0.50
-0.17
0.22
0.54
0.69
0.64
0.48
0.30
0.19
0.18
0.21
0.24
0.20
0.11
0.00
-0.08
-0.13
-0.17
-0.22
-0.30
-0.40
-0.46
-0.44
-0.30
-0.06
0.22
0.45
0.55
0.52
0.41
0.32
0.30
0.38
0.47
0.48
0.35
0.11
-0.15
-0.32
-0.34
-0.24
-0.08
0.06
0.13
0.15
0.14
0.14
0.16
0.21
0.29
0.40
0.50
0.54
0.51
0.41
0.28
0.18
0.14
0.14
0.13
0.08
-0.05
-0.21
-0.36
-0.46
-0.47
-0.40
-0.27
-0.11
0.03
0.14
0.20
0.23
0.27
0.34
0.43
0.52
0.56
0.53
0.42
0.25
0.05
-0.14
-0.28
-0.34
-0.31
-0.22
-0.15
-0.19
-0.38
-0.69
-0.99
-1.12
-1.00
-0.63
-0.15
0.27
0.49
0.46
0.21
-0.13
-0.43
-0.63
-0.73
-0.75
-0.77
-0.80
-0.83
-0.80
-0.65
-0.34
0.05
0.42
0.63
0.59
0.33
-0.07
-0.43
-0.65
-0.69
-0.61
-0.49
-0.40
-0.33
-0.25
-0.09
0.11
0.30
0.39
0.35
0.22
0.11
0.08
0.16
0.25
0.24
0.07
-0.21
-0.49
-0.65
-0.64
-0.51
-0.37
-0.31
-0.35
-0.42
-0.42
-0.28
-0.03
0.25
0.48
0.59
0.57
0.49
0.40
0.40
0.52
0.73
0.95
1.08
1.02
0.79
0.49
0.24
0.13
0.15
0.20
0.19
0.09
-0.01
0.01
0.20
0.48
0.68
0.65
0.40
0.07
-0.12
-0.01
0.36
0.80
1.10
1.11
0.84
0.42
0.03
-0.23
-0.35
-0.36
-0.33
-0.29
-0.23
-0.17
-0.13
-0.16
-0.24
-0.33
-0.38
-0.35
-0.24
-0.09
0.02
0.10
0.16
0.27
0.44
0.65
0.80
0.81
0.63
0.30
-0.07
-0.36
-0.49
-0.45
-0.33
-0.21
-0.22
-0.40
-0.71
-1.08
-1.40
-1.57
-1.57
-1.40
-1.11
-0.74
-0.32
0.13
0.57
0.96
1.22
1.32
1.22
0.97
0.66
0.39
0.21
0.13
0.11
0.11
0.13
0.17
0.25
0.33
0.39
0.40
0.38
0.38
0.45
0.58
0.69
0.70
0.56
0.33
0.08
-0.10
-0.21
-0.31
-0.43
-0.59
-0.70
-0.68
-0.49
-0.17
0.16
0.38
0.42
0.28
0.05
-0.16
-0.28
-0.27
-0.17
-0.04
0.02
-0.01
-0.10
-0.21
-0.25
-0.19
-0.04
0.15
0.31
0.42
0.46
0.42
0.29
0.06
-0.20
-0.42
-0.53
-0.52
-0.46
-0.43
-0.50
-0.66
-0.83
-0.91
-0.82
-0.60
-0.30
0.00
0.27
0.49
0.68
0.83
0.90
0.84
0.65
0.38
0.09
-0.16
-0.33
-0.40
-0.38
-0.29
-0.13
0.03
0.16
0.19
0.09
-0.10
-0.28
-0.35
-0.25
0.01
0.34
0.66
0.87
0.95
0.89
0.74
0.50
0.20
-0.09
-0.31
-0.38
-0.25
0.03
0.33
0.51
0.43
0.09
-0.42
-0.91
-1.20
-1.18
-0.90
-0.48
-0.10
0.12
0.13
-0.00
-0.18
-0.32
-0.39
-0.37
-0.31
-0.22
-0.11
0.01
0.13
0.27
0.40
0.52
0.60
0.60
0.49
0.30
0.06
-0.14
-0.26
-0.28
-0.23
-0.13
-0.03
0.07
0.17
0.26
0.34
0.36
0.32
0.21
0.05
-0.13
-0.31
-0.44
-0.49
-0.44
-0.32
-0.18
-0.09
-0.08
-0.17
-0.31
-0.44
-0.52
-0.49
-0.34
-0.07
0.29
0.69
1.04
1.28
1.36
1.28
1.11
0.87
0.59
0.28
-0.05
-0.38
-0.66
-0.83
-0.88
-0.84
-0.80
-0.79
-0.81
-0.79
-0.66
-0.39
-0.05
0.30
0.58
0.76
0.86
0.90
0.90
0.84
0.70
0.51
0.30
0.17
0.16
0.24
0.32
0.29
0.09
-0.26
-0.65
-0.97
-1.14
-1.15
-1.08
-1.00
-0.97
-0.93
-0.84
-0.61
-0.26
0.14
0.45
0.60
0.57
0.44
0.32
0.29
0.37
0.49
0.57
0.53
0.35
0.07
-0.23
-0.47
-0.58
-0.58
-0.49
-0.40
-0.35
-0.36
-0.41
-0.46
-0.50
-0.50
-0.46
-0.40
-0.30
-0.15
0.00
0.11
0.08
-0.16
-0.61
-1.15
-1.61
-1.85
-1.82
-1.56
-1.21
-0.90
-0.69
-0.59
-0.56
-0.54
-0.50
-0.44
-0.36
-0.33
-0.35
-0.44
-0.52
-0.53
-0.35
0.09
0.80
1.68
2.59
3.32
3.73
3.72
3.27
2.48
1.48
0.43
-0.54
-1.32
-1.91
-2.35
-2.71
-3.09
-3.51
-3.95
-4.34
-4.55
-4.50
-4.19
-3.72
-3.30
-3.09
-3.20
-3.59
-4.08
-4.43
-4.52
-4.30
-3.90
-3.44
-3.02
-2.65
-2.25
-1.77
-1.21
-0.60
-0.02
0.50
0.99
1.51
2.09
2.71
3.29
3.72
3.90
3.77
3.33
2.67
1.94
1.35
1.09
1.28
1.93
2.85
3.81
4.55
4.91
4.87
4.56
4.16
3.86
3.75
3.80
3.89
3.88
3.63
3.10
2.35
1.50
0.75
0.24
0.08
0.25
0.67
1.20
1.65
1.91
1.92
1.67
1.22
0.65
0.03
-0.56
-1.09
-1.50
-1.75
-1.82
-1.73
-1.56
-1.38
-1.30
-1.37
-1.59
-1.92
-2.31
-2.71
-3.08
-3.42
-3.68
-3.84
-3.92
-3.94
-3.96
-4.07
-4.28
-4.57
-4.82
-4.96
-4.95
-4.83
-4.66
-4.55
-4.52
-4.56
-4.62
-4.69
-4.76
-4.86
-5.01
-5.18
-5.28
-5.20
-4.91
-4.39
-3.72
-3.01
-2.35
-1.80
-1.40
-1.16
-1.09
-1.15
-1.29
-1.38
-1.25
-0.76
0.19
1.57
3.24
5.05
6.80
8.35
9.62
10.62
11.39
11.97
12.34
12.47
12.32
11.89
11.29
10.68
10.21
9.99
9.96
9.99
9.89
9.48
8.69
7.55
6.17
4.73
3.39
2.25
1.33
0.62
0.01
-0.56
-1.18
-1.88
-2.68
-3.55
-4.41
-5.11
-5.51
-5.57
-5.42
-5.41
-5.91
-7.16
-9.05
-11.10
-12.62
-13.05
-12.25
-10.63
-9.08
-8.58
-9.78
-12.66
-16.52
-20.22
-22.75
-23.71
-23.53
-23.35
-24.42
-27.49
-32.37
-37.97
-42.87
-46.00
-47.22
-47.33
-47.68
-49.57
-53.81
-60.63
-69.66
-79.68
-88.28
-91.89
-86.54
-69.55
-41.20
-5.41
31.17
61.62
81.31
89.50
88.80
83.40
76.82
70.82
65.57
60.80
56.73
54.20
53.99
55.90
58.58
60.10
58.84
54.48
48.05
41.53
36.79
34.76
35.01
36.13
36.38
34.50
30.27
24.55
19.03
15.68
16.17
21.07
29.16
37.20
40.53
34.71
17.47
-9.96
-42.88
-74.60
-98.65
-110.75
-109.73
-97.26
-76.76
-52.26
-27.56
-5.79
10.89
21.46
26.14
26.20
23.51
20.03
17.36
16.59
18.31
22.45
28.29
34.56
39.80
42.90
43.51
42.11
39.71
37.34
35.61
34.59
33.97
33.46
32.97
32.68
32.68
32.77
32.33
30.56
27.00
21.83
16.06
11.04
7.98
7.49
9.45
13.29
18.43
24.45
30.91
36.81
40.27
38.93
30.96
16.17
-3.36
-23.79
-40.94
-51.94
-56.21
-55.33
-51.88
-48.07
-44.90
-42.18
-39.30
-35.94
-32.46
-29.58
-27.83
-27.08
-26.61
-25.44
-22.84
-18.79
-13.98
-9.55
-6.58
-5.66
-6.66
-8.87
-11.35
-13.37
-14.64
-15.30
-15.74
-16.28
-17.03
-17.82
-18.44
-18.72
-18.67
-18.47
-18.28
-18.14
-17.94
-17.54
-16.85
-15.99
-15.20
-14.79
-14.92
-15.54
-16.23
-16.29
-14.88
-11.28
-5.26
2.70
11.35
19.05
24.32
26.31
25.17
21.81
17.48
13.21
9.55
6.59
4.21
2.36
1.14
0.67
0.93
1.66
2.47
2.99
3.03
2.66
2.13
1.72
1.58
1.72
1.99
2.16
2.07
1.68
1.08
0.46
-0.02
-0.24
-0.21
-0.06
0.08
0.12
0.03
-0.17
-0.40
-0.60
-0.70
-0.66
-0.47
-0.19
0.08
0.19
0.04
-0.39
-1.00
-1.59
-1.94
-1.94
-1.60
-1.06
-0.50
-0.05
0.27
0.53
0.79
1.05
1.26
1.32
1.18
0.86
0.48
0.15
-0.02
-0.01
0.15
0.38
0.61
0.80
0.91
0.91
0.76
0.52
0.25
0.06
0.01
0.10
0.27
0.41
0.46
0.42
0.34
0.27
0.24
0.25
0.24
0.19
0.09
-0.04
-0.17
-0.30
-0.42
-0.54
-0.63
-0.66
-0.60
-0.45
-0.24
-0.02
0.16
0.27
0.33
0.33
0.27
0.10
-0.16
-0.49
-0.80
-0.98
-1.01
-0.92
-0.81
-0.78
-0.83
-0.87
-0.81
-0.61
-0.31
-0.02
0.16
0.22
0.22
0.22
0.27
0.33
0.37
0.32
0.24
0.18
0.23
0.37
0.54
0.62
0.53
0.28
-0.04
-0.29
-0.38
-0.30
-0.13
0.04
0.15
0.19
0.21
0.25
0.30
0.30
0.19
-0.01
-0.20
-0.26
-0.13
0.16
0.49
0.71
0.75
0.65
0.52
0.46
0.50
0.60
0.68
0.67
0.58
0.41
0.22
0.03
-0.14
-0.27
-0.35
-0.36
-0.31
-0.22
-0.13
-0.07
-0.02
0.01
0.02
-0.02
-0.12
-0.24
-0.30
-0.25
-0.05
0.22
0.44
0.53
0.47
0.34
0.24
0.23
0.28
0.31
0.24
0.05
-0.20
-0.41
-0.48
-0.38
-0.15
0.16
0.45
0.63
0.63
0.43
0.05
-0.42
-0.84
-1.11
-1.16
-1.03
-0.81
-0.62
-0.56
-0.63
-0.77
-0.89
-0.90
-0.76
-0.50
-0.19
0.08
0.21
0.18
-0.03
-0.35
-0.71
-1.02
-1.22
-1.26
-1.17
-1.01
-0.82
-0.65
-0.48
-0.28
-0.03
0.26
0.55
0.77
0.87
0.84
0.73
0.58
0.46
0.40
0.42
0.50
0.58
0.59
0.48
0.26
-0.04
-0.32
-0.50
-0.50
-0.31
0.03
0.44
0.81
1.06
1.13
1.06
0.89
0.66
0.41
0.18
-0.00
-0.11
-0.14
-0.13
-0.13
-0.19
-0.34
-0.53
-0.66
-0.62
-0.39
-0.01
0.38
0.66
0.78
0.74
0.59
0.42
0.26
0.17
0.15
0.25
0.45
0.70
0.92
1.00
0.87
0.54
0.10
-0.34
-0.68
-0.86
-0.92
-0.88
-0.79
-0.68
-0.55
-0.40
-0.25
-0.14
-0.08
-0.09
-0.15
-0.22
-0.23
-0.18
-0.10
-0.06
-0.12
-0.33
-0.61
-0.87
-0.98
-0.90
-0.69
-0.46
-0.33
-0.34
-0.40
-0.37
-0.17
0.19
0.57
0.79
0.71
0.36
-0.11
-0.52
-0.71
-0.67
-0.46
-0.21
0.01
0.20
0.43
0.72
1.05
1.32
1.41
1.29
0.99
0.62
0.30
0.10
0.03
0.02
0.02
-0.01
-0.09
-0.21
-0.34
-0.44
-0.47
-0.42
-0.30
-0.16
-0.07
-0.08
-0.15
-0.23
-0.23
-0.10
0.16
0.46
0.70
0.81
0.77
0.65
0.50
0.40
0.35
0.30
0.23
0.08
-0.12
-0.33
-0.48
-0.55
-0.56
-0.54
-0.55
-0.58
-0.60
-0.56
-0.45
-0.30
-0.19
-0.18
-0.26
-0.38
-0.44
-0.37
-0.18
0.06
0.24
0.31
0.29
0.24
0.22
0.27
0.35
0.37
0.30
0.12
-0.12
-0.35
-0.48
-0.48
-0.38
-0.21
-0.04
0.05
0.03
-0.09
-0.25
-0.37
-0.39
-0.32
-0.21
-0.16
-0.22
-0.38
-0.58
-0.70
-0.69
-0.53
-0.28
-0.01
0.27
0.57
0.90
1.25
1.51
1.60
1.46
1.15
0.79
0.54
0.47
0.54
0.64
0.64
0.51
0.32
0.19
0.21
0.35
0.48
0.47
0.31
0.06
-0.13
-0.15
-0.04
0.07
0.01
-0.30
-0.80
-1.29
-1.57
-1.55
-1.27
-0.90
-0.57
-0.35
-0.18
0.01
0.25
0.50
0.62
0.51
0.18
-0.28
-0.71
-0.97
-1.01
-0.87
-0.59
-0.26
0.09
0.43
0.72
0.87
0.85
0.60
0.19
-0.28
-0.68
-0.91
-0.88
-0.62
-0.19
0.26
0.61
0.77
0.71
0.48
0.16
-0.17
-0.41
-0.52
-0.49
-0.32
-0.08
0.20
0.45
0.63
0.68
0.60
0.40
0.10
-0.21
-0.42
-0.44
-0.23
0.16
0.59
0.94
1.07
0.99
0.73
0.39
0.04
-0.29
-0.58
-0.83
-1.00
-1.04
-0.93
-0.67
-0.33
-0.04
0.15
0.21
0.18
0.12
0.08
0.07
0.03
-0.07
-0.23
-0.39
-0.45
-0.33
-0.05
0.30
0.59
0.74
0.70
0.54
0.33
0.15
0.06
0.08
0.19
0.34
0.46
0.49
0.41
0.26
0.12
0.05
0.10
0.21
0.32
0.36
0.33
0.30
0.35
0.49
0.64
0.70
0.58
0.30
-0.00
-0.15
-0.08
0.16
0.36
0.35
0.04
-0.43
-0.84
-0.97
-0.78
-0.42
-0.13
-0.07
-0.26
-0.54
-0.73
-0.72
-0.57
-0.43
-0.40
-0.52
-0.71
-0.89
-1.00
-1.06
-1.11
-1.17
-1.18
-1.07
-0.80
-0.39
0.07
0.46
0.72
0.81
0.74
0.54
0.29
0.05
-0.12
-0.18
-0.11
0.05
0.25
0.41
0.49
0.44
0.23
-0.12
-0.55
-0.95
-1.18
-1.13
-0.75
-0.11
0.60
1.15
1.36
1.18
0.71
0.16
-0.24
-0.34
-0.12
0.30
0.76
1.06
1.10
0.88
0.48
0.03
-0.31
-0.48
-0.46
-0.30
-0.10
0.06
0.13
0.14
0.15
0.20
0.33
0.51
0.66
0.69
0.57
0.33
0.06
-0.12
-0.16
-0.08
0.01
0.01
-0.12
-0.31
-0.46
-0.48
-0.35
-0.17
-0.06
-0.09
-0.26
-0.50
-0.72
-0.85
-0.87
-0.82
-0.75
-0.70
-0.66
-0.58
-0.41
-0.15
0.13
0.34
0.38
0.26
0.06
-0.08
-0.09
0.03
0.18
0.25
0.18
0.03
-0.07
-0.01
0.24
0.60
0.95
1.19
1.29
1.30
1.27
1.24
1.19
1.06
0.84
0.55
0.25
0.01
-0.12
-0.16
-0.18
-0.19
-0.23
-0.28
-0.32
-0.32
-0.31
-0.29
-0.30
-0.31
-0.33
-0.31
-0.26
-0.22
-0.21
-0.27
-0.39
-0.51
-0.57
-0.52
-0.37
-0.15
0.06
0.23
0.34
0.39
0.37
0.26
0.02
-0.31
-0.62
-0.79
-0.73
-0.44
-0.08
0.20
0.29
0.17
-0.02
-0.16
-0.14
0.08
0.41
0.74
0.98
1.03
0.89
0.58
0.16
-0.22
-0.45
-0.43
-0.19
0.17
0.45
0.50
0.25
-0.24
-0.82
-1.30
-1.52
-1.42
-1.05
-0.53
-0.02
0.34
0.48
0.41
0.21
0.01
-0.10
-0.08
0.03
0.14
0.19
0.18
0.14
0.13
0.15
0.20
0.24
0.23
0.17
0.10
0.05
0.04
0.07
0.12
0.17
0.19
0.16
0.07
-0.06
-0.17
-0.17
-0.01
0.30
0.66
0.95
1.06
0.98
0.78
0.55
0.37
0.22
0.06
-0.14
-0.37
-0.57
-0.68
-0.66
-0.55
-0.40
-0.30
-0.27
-0.31
-0.37
-0.40
-0.36
-0.26
-0.13
-0.05
-0.07
-0.24
-0.51
-0.79
-0.97
-0.95
-0.75
-0.43
-0.12
0.08
0.14
0.10
0.04
0.00
-0.02
-0.06
-0.14
-0.24
-0.32
-0.32
-0.23
-0.09
0.02
0.03
-0.07
-0.23
-0.33
-0.31
-0.15
0.09
0.33
0.48
0.51
0.42
0.30
0.21
0.19
0.22
0.26
0.26
0.17
-0.00
-0.21
-0.39
-0.46
-0.35
-0.05
0.41
0.90
1.28
1.44
1.34
1.03
0.66
0.32
0.09
-0.07
-0.20
-0.31
-0.36
-0.30
-0.10
0.18
0.40
0.43
0.25
-0.08
-0.42
-0.66
-0.72
-0.60
-0.35
-0.02
0.32
0.61
0.75
0.73
0.56
0.33
0.13
0.03
0.04
0.08
0.09
0.04
-0.03
-0.07
-0.06
-0.04
-0.06
-0.18
-0.34
-0.47
-0.48
-0.34
-0.11
0.07
0.09
-0.08
-0.37
-0.66
-0.83
-0.83
-0.70
-0.53
-0.39
-0.32
-0.26
-0.15
0.03
0.25
0.41
0.41
0.23
-0.07
-0.37
-0.53
-0.51
-0.35
-0.13
0.05
0.14
0.16
0.13
0.08
0.01
-0.09
-0.23
-0.35
-0.39
-0.32
-0.15
0.04
0.16
0.14
0.00
-0.18
-0.26
-0.17
0.10
0.48
0.84
1.05
1.08
0.98
0.84
0.75
0.75
0.83
0.92
0.99
0.99
0.93
0.79
0.59
0.34
0.04
-0.28
-0.59
-0.88
-1.14
-1.31
-1.34
-1.16
-0.75
-0.16
0.45
0.89
1.06
0.97
0.74
0.50
0.35
0.26
0.15
-0.05
-0.32
-0.57
-0.64
-0.45
-0.03
0.53
1.06
1.44
1.63
1.60
1.41
1.10
0.70
0.27
-0.12
-0.38
-0.43
-0.28
0.01
0.27
0.33
0.08
-0.48
-1.21
-1.89
-2.31
-2.31
-1.92
-1.29
-0.66
-0.25
-0.16
-0.34
-0.67
-0.98
-1.19
-1.29
-1.33
-1.34
-1.29
-1.10
-0.73
-0.24
0.25
0.58
0.64
0.46
0.16
-0.10
-0.23
-0.21
-0.11
-0.01
0.01
-0.05
-0.16
-0.28
-0.38
-0.46
-0.52
-0.53
-0.49
-0.39
-0.22
-0.03
0.14
0.24
0.24
0.17
0.05
-0.05
-0.11
-0.11
-0.04
0.08
0.22
0.37
0.47
0.48
0.37
0.16
-0.09
-0.26
-0.26
-0.04
0.36
0.83
1.25
1.52
1.62
1.57
1.45
1.34
1.27
1.23
1.17
1.07
0.93
0.76
0.63
0.55
0.53
0.56
0.62
0.66
0.63
0.49
0.21
-0.22
-0.71
-1.16
-1.46
-1.55
-1.45
-1.22
-0.96
-0.68
-0.42
-0.18
-0.01
0.03
-0.12
-0.43
-0.78
-1.00
-0.93
-0.56
-0.00
0.54
0.85
0.84
0.52
0.06
-0.36
-0.57
-0.53
-0.27
0.09
0.43
0.68
0.79
0.77
0.63
0.40
0.13
-0.14
-0.34
-0.43
-0.39
-0.26
-0.08
0.05
0.07
-0.05
-0.27
-0.49
-0.62
-0.57
-0.37
-0.08
0.16
0.27
0.19
-0.01
-0.24
-0.41
-0.46
-0.37
-0.17
0.10
0.38
0.62
0.76
0.76
0.66
0.50
0.39
0.36
0.38
0.39
0.32
0.15
-0.06
-0.22
-0.28
-0.20
-0.05
0.15
0.34
0.53
0.69
0.78
0.78
0.63
0.35
-0.00
-0.33
-0.56
-0.67
-0.66
-0.57
-0.43
-0.29
-0.19
-0.19
-0.31
-0.57
-0.91
-1.24
-1.46
-1.44
-1.16
-0.65
-0.05
0.50
0.84
0.92
0.76
0.49
0.23
0.06
0.00
-0.01
-0.05
-0.13
-0.24
-0.32
-0.32
-0.23
-0.08
0.11
0.27
0.39
0.46
0.50
0.54
0.57
0.61
0.63
0.60
0.50
0.34
0.12
-0.14
-0.41
-0.68
-0.90
-0.99
-0.87
-0.51
0.04
0.65
1.16
1.42
1.43
1.25
1.05
0.93
0.90
0.91
0.89
0.81
0.71
0.65
0.67
0.73
0.78
0.74
0.60
0.40
0.21
0.07
-0.04
-0.18
-0.37
-0.58
-0.73
-0.74
-0.59
-0.40
-0.28
-0.33
-0.56
-0.86
-1.07
-1.10
-0.93
-0.65
-0.36
-0.16
-0.07
-0.08
-0.16
-0.25
-0.33
-0.39
-0.42
-0.45
-0.49
-0.53
-0.55
-0.50
-0.37
-0.18
0.01
0.13
0.15
0.12
0.08
0.11
0.17
0.19
0.12
-0.06
-0.30
-0.46
-0.46
-0.27
0.05
0.37
0.59
0.61
0.44
0.13
-0.22
-0.51
-0.70
-0.76
-0.73
-0.64
-0.54
-0.42
-0.30
-0.17
-0.04
0.05
0.07
0.03
-0.03
-0.08
-0.08
-0.04
0.00
0.00
-0.03
-0.04
0.03
0.24
0.57
0.92
1.17
1.21
1.03
0.69
0.30
-0.04
-0.26
-0.35
-0.34
-0.28
-0.20
-0.10
0.02
0.15
0.23
0.25
0.18
0.06
-0.04
-0.01
0.17
0.47
0.76
0.91
0.83
0.56
0.23
-0.00
-0.03
0.15
0.40
0.59
0.60
0.42
0.13
-0.17
-0.37
-0.42
-0.35
-0.22
-0.12
-0.09
-0.18
-0.32
-0.44
-0.43
-0.21
0.21
0.76
1.29
1.68
1.87
1.90
1.86
1.87
2.02
2.31
2.68
3.06
3.36
3.55
3.61
3.56
3.47
3.39
3.44
3.75
4.42
5.45
6.60
7.40
7.31
5.92
3.18
-0.48
-4.26
-7.32
-9.06
-9.29
-8.24
-6.41
-4.32
-2.43
-1.02
-0.27
-0.21
-0.75
-1.66
-2.61
-3.36
-3.80
-4.11
-4.57
-5.48
-6.94
-8.81
-10.77
-12.44
-13.56
-14.13
-14.38
-14.64
-15.23
-16.26
-17.55
-18.74
-19.50
-19.71
-19.57
-19.44
-19.66
-20.32
-21.38
-22.82
-24.73
-26.98
-28.74
-28.17
-22.93
-11.20
7.14
29.93
53.46
73.94
88.94
97.86
101.14
99.12
91.40
77.35
57.32
33.60
10.23
-8.55
-20.03
-24.16
-23.28
-20.61
-18.80
-18.90
-20.52
-22.60
-24.20
-24.97
-25.03
-24.69
-24.25
-23.88
-23.74
-23.90
-24.42
-25.23
-26.12
-26.77
-26.94
-26.60
-26.04
-25.81
-26.53
-28.66
-32.20
-36.69
-41.30
-45.15
-47.62
-48.59
-48.50
-48.24
-48.99
-51.81
-57.07
-63.67
-68.69
-67.83
-56.76
-33.14
1.80
43.07
83.41
115.86
136.30
144.53
143.62
138.04
131.71
126.92
124.48
124.28
125.75
127.62
127.52
122.16
108.42
84.92
53.26
17.92
-15.09
-40.57
-55.86
-61.47
-60.26
-55.74
-50.68
-46.41
-43.13
-40.59
-38.68
-37.49
-37.15
-37.50
-38.09
-38.36
-37.91
-36.65
-34.90
-33.19
-32.08
-31.92
-32.72
-34.11
-35.47
-36.21
-35.97
-34.72
-32.80
-30.68
-28.85
-27.74
-27.70
-28.81
-30.54
-31.53
-29.63
-22.56
-9.03
10.50
33.65
56.96
76.90
